    0.000        6
    0.015        6
    0.030        9
    0.045       11
    0.060       10
    0.075        9
    0.090        7
    0.105        7
    0.120       11
    0.135        8
    0.150        7
    0.165        8
    0.180       10
    0.195        7
    0.210        8
    0.225        8
    0.240        8
    0.255        6
    0.270       10
    0.285       10
    0.300       10
    0.315       10
    0.330       12
    0.345       11
    0.360        8
    0.375        9
    0.390        9
    0.405        9
    0.420        9
    0.435        8
    0.450        8
    0.465        8
    0.480        6
    0.495        5
    0.510        6
    0.525        7
    0.540        7
    0.555        8
    0.570        8
    0.585        8
    0.600        7
    0.615        4
    0.630        4
    0.645        6
    0.660        8
    0.675       11
    0.690       11
    0.705        8
    0.720       10
    0.735        9
    0.750        8
    0.765        8
    0.780        7
    0.795       10
    0.810        9
    0.825        7
    0.840       10
    0.855       10
    0.870       12
    0.885       11
    0.900       14
    0.915       12
    0.930       12
    0.945       11
    0.960       12
    0.975       12
    0.990       12
    1.005       12
    1.020       16
    1.035       16
    1.050       18
    1.065       18
    1.080       18
    1.095       14
    1.110       15
    1.125       20
    1.140       23
    1.155       27
    1.170       27
    1.185       27
    1.200       31
    1.215       39
    1.230       45
    1.245       53
    1.260       62
    1.275       55
    1.290       62
    1.305       64
    1.320       55
    1.335       72
    1.350       75
    1.365       65
    1.380       67
    1.395       75
    1.410       76
    1.425       86
    1.440       82
    1.455      104
    1.470       93
    1.485       81
    1.500       86
    1.515       85
    1.530      104
    1.545       93
    1.560       88
    1.575       91
    1.590      106
    1.605      115
    1.620      100
    1.635      101
    1.650       99
    1.665      104
    1.680      107
    1.695      117
    1.710      127
    1.725      112
    1.740      119
    1.755      118
    1.770      114
    1.785      117
    1.800      127
    1.815      131
    1.830      117
    1.845      137
    1.860      130
    1.875      131
    1.890      138
    1.905      139
    1.920      142
    1.935      153
    1.950      156
    1.965      148
    1.980      150
    1.995      151
    2.010      157
    2.025      153
    2.040      154
    2.055      168
    2.070      176
    2.085      161
    2.100      167
    2.115      170
    2.130      169
    2.145      172
    2.160      176
    2.175      180
    2.190      172
    2.205      182
    2.220      194
    2.235      181
    2.250      169
    2.265      187
    2.280      200
    2.295      200
    2.310      189
    2.325      177
    2.340      168
    2.355      186
    2.370      190
    2.385      185
    2.400      189
    2.415      191
    2.430      188
    2.445      186
    2.460      189
    2.475      190
    2.490      192
    2.505      215
    2.520      191
    2.535      182
    2.550      179
    2.565      177
    2.580      213
    2.595      196
    2.610      188
    2.625      195
    2.640      200
    2.655      200
    2.670      208
    2.685      208
    2.700      208
    2.715      214
    2.730      204
    2.745      190
    2.760      197
    2.775      195
    2.790      202
    2.805      228
    2.820      254
    2.835      241
    2.850      222
    2.865      222
    2.880      214
    2.895      187
    2.910      177
    2.925      167
    2.940      199
    2.955      210
    2.970      215
    2.985      210
    3.000      213
    3.015      240
    3.030      225
    3.045      226
    3.060      213
    3.075      208
    3.090      210
    3.105      213
    3.120      221
    3.135      189
    3.150      185
    3.165      223
    3.180      200
    3.195      199
    3.210      205
    3.225      215
    3.240      208
    3.255      206
    3.270      241
    3.285      230
    3.300      213
    3.315      207
    3.330      212
    3.345      222
    3.360      209
    3.375      236
    3.390      228
    3.405      200
    3.420      201
    3.435      204
    3.450      212
    3.465      229
    3.480      221
    3.495      206
    3.510      217
    3.525      200
    3.540      219
    3.555      214
    3.570      244
    3.585      220
    3.600      245
    3.615      201
    3.630      215
    3.645      229
    3.660      215
    3.675      190
    3.690      227
    3.705      216
    3.720      218
    3.735      210
    3.750      201
    3.765      209
    3.780      227
    3.795      212
    3.810      238
    3.825      230
    3.840      211
    3.855      231
    3.870      215
    3.885      217
    3.900      231
    3.915      231
    3.930      220
    3.945      219
    3.960      224
    3.975      209
    3.990      202
    4.005      211
    4.020      233
    4.035      205
    4.050      216
    4.065      225
    4.080      225
    4.095      218
    4.110      240
    4.125      219
    4.140      229
    4.155      231
    4.170      238
    4.185      211
    4.200      241
    4.215      227
    4.230      224
    4.245      242
    4.260      240
    4.275      219
    4.290      231
    4.305      190
    4.320      224
    4.335      227
    4.350      226
    4.365      230
    4.380      234
    4.395      234
    4.410      240
    4.425      245
    4.440      259
    4.455      231
    4.470      227
    4.485      244
    4.500      233
    4.515      223
    4.530      227
    4.545      243
    4.560      207
    4.575      209
    4.590      204
    4.605      234
    4.620      214
    4.635      236
    4.650      210
    4.665      223
    4.680      246
    4.695      241
    4.710      207
    4.725      221
    4.740      212
    4.755      249
    4.770      230
    4.785      213
    4.800      255
    4.815      243
    4.830      253
    4.845      254
    4.860      227
    4.875      235
    4.890      245
    4.905      246
    4.920      230
    4.935      238
    4.950      248
    4.965      236
    4.980      220
    4.995      241
    5.010      217
    5.025      233
    5.040      227
    5.055      232
    5.070      224
    5.085      218
    5.100      217
    5.115      246
    5.130      247
    5.145      218
    5.160      240
    5.175      244
    5.190      247
    5.205      245
    5.220      252
    5.235      221
    5.250      213
    5.265      235
    5.280      215
    5.295      247
    5.310      238
    5.325      226
    5.340      229
    5.355      281
    5.370      246
    5.385      262
    5.400      239
    5.415      238
    5.430      243
    5.445      247
    5.460      235
    5.475      242
    5.490      254
    5.505      255
    5.520      235
    5.535      242
    5.550      245
    5.565      263
    5.580      273
    5.595      246
    5.610      239
    5.625      233
    5.640      255
    5.655      243
    5.670      243
    5.685      261
    5.700      219
    5.715      218
    5.730      261
    5.745      236
    5.760      247
    5.775      261
    5.790      253
    5.805      244
    5.820      245
    5.835      242
    5.850      243
    5.865      258
    5.880      237
    5.895      247
    5.910      247
    5.925      272
    5.940      280
    5.955      261
    5.970      259
    5.985      243
    6.000      254
    6.015      263
    6.030      261
    6.045      265
    6.060      255
    6.075      237
    6.090      246
    6.105      257
    6.120      267
    6.135      275
    6.150      251
    6.165      241
    6.180      240
    6.195      243
    6.210      256
    6.225      281
    6.240      275
    6.255      257
    6.270      246
    6.285      255
    6.300      283
    6.315      259
    6.330      248
    6.345      257
    6.360      249
    6.375      246
    6.390      242
    6.405      257
    6.420      268
    6.435      261
    6.450      251
    6.465      240
    6.480      231
    6.495      260
    6.510      280
    6.525      255
    6.540      254
    6.555      248
    6.570      240
    6.585      239
    6.600      253
    6.615      271
    6.630      269
    6.645      274
    6.660      271
    6.675      261
    6.690      262
    6.705      271
    6.720      267
    6.735      264
    6.750      248
    6.765      252
    6.780      258
    6.795      266
    6.810      277
    6.825      255
    6.840      250
    6.855      271
    6.870      268
    6.885      250
    6.900      277
    6.915      284
    6.930      273
    6.945      281
    6.960      281
    6.975      289
    6.990      260
    7.005      256
    7.020      275
    7.035      257
    7.050      256
    7.065      258
    7.080      269
    7.095      267
    7.110      268
    7.125      268
    7.140      259
    7.155      276
    7.170      250
    7.185      262
    7.200      276
    7.215      250
    7.230      278
    7.245      266
    7.260      256
    7.275      282
    7.290      299
    7.305      291
    7.320      274
    7.335      277
    7.350      258
    7.365      248
    7.380      262
    7.395      294
    7.410      280
    7.425      265
    7.440      289
    7.455      233
    7.470      274
    7.485      236
    7.500      276
    7.515      251
    7.530      283
    7.545      275
    7.560      305
    7.575      302
    7.590      255
    7.605      277
    7.620      269
    7.635      273
    7.650      290
    7.665      283
    7.680      274
    7.695      255
    7.710      286
    7.725      279
    7.740      284
    7.755      277
    7.770      291
    7.785      290
    7.800      306
    7.815      304
    7.830      307
    7.845      319
    7.860      301
    7.875      327
    7.890      338
    7.905      338
    7.920      336
    7.935      352
    7.950      376
    7.965      383
    7.980      418
    7.995      447
    8.010      487
    8.025      509
    8.040      518
    8.055      644
    8.070      660
    8.085      691
    8.100      831
    8.115      847
    8.130      910
    8.145     1015
    8.160     1147
    8.175     1265
    8.190     1476
    8.205     1598
    8.220     1695
    8.235     1793
    8.250     1983
    8.265     2183
    8.280     2362
    8.295     2562
    8.310     2852
    8.325     3170
    8.340     3436
    8.355     3791
    8.370     4326
    8.385     4853
    8.400     5465
    8.415     6176
    8.430     7336
    8.445     9210
    8.460    10806
    8.475    11515
    8.490    10750
    8.505     8260
    8.520     5263
    8.535     2930
    8.550     1572
    8.565     1044
    8.580      820
    8.595      651
    8.610      596
    8.625      520
    8.640      449
    8.655      427
    8.670      387
    8.685      360
    8.700      361
    8.715      359
    8.730      355
    8.745      359
    8.760      369
    8.775      350
    8.790      326
    8.805      357
    8.820      353
    8.835      322
    8.850      318
    8.865      316
    8.880      326
    8.895      324
    8.910      339
    8.925      354
    8.940      353
    8.955      362
    8.970      370
    8.985      365
    9.000      324
    9.015      297
    9.030      289
    9.045      311
    9.060      292
    9.075      295
    9.090      301
    9.105      304
    9.120      308
    9.135      290
    9.150      307
    9.165      308
    9.180      289
    9.195      278
    9.210      305
    9.225      322
    9.240      318
    9.255      322
    9.270      309
    9.285      274
    9.300      290
    9.315      294
    9.330      304
    9.345      302
    9.360      304
    9.375      284
    9.390      271
    9.405      328
    9.420      297
    9.435      297
    9.450      313
    9.465      314
    9.480      315
    9.495      347
    9.510      329
    9.525      357
    9.540      360
    9.555      401
    9.570      378
    9.585      412
    9.600      458
    9.615      460
    9.630      433
    9.645      463
    9.660      521
    9.675      576
    9.690      595
    9.705      625
    9.720      679
    9.735      724
    9.750      899
    9.765     1013
    9.780     1161
    9.795     1178
    9.810     1046
    9.825      889
    9.840      655
    9.855      487
    9.870      388
    9.885      358
    9.900      331
    9.915      303
    9.930      318
    9.945      305
    9.960      306
    9.975      325
    9.990      272
   10.005      282
   10.020      283
   10.035      313
   10.050      296
   10.065      286
   10.080      280
   10.095      285
   10.110      284
   10.125      300
   10.140      300
   10.155      303
   10.170      313
   10.185      308
   10.200      301
   10.215      278
   10.230      291
   10.245      304
   10.260      295
   10.275      300
   10.290      301
   10.305      290
   10.320      285
   10.335      289
   10.350      302
   10.365      294
   10.380      292
   10.395      293
   10.410      285
   10.425      281
   10.440      265
   10.455      269
   10.470      294
   10.485      293
   10.500      296
   10.515      290
   10.530      290
   10.545      322
   10.560      321
   10.575      310
   10.590      331
   10.605      343
   10.620      347
   10.635      335
   10.650      334
   10.665      371
   10.680      386
   10.695      384
   10.710      443
   10.725      491
   10.740      503
   10.755      545
   10.770      599
   10.785      656
   10.800      737
   10.815      812
   10.830      804
   10.845      759
   10.860      683
   10.875      568
   10.890      440
   10.905      372
   10.920      347
   10.935      317
   10.950      302
   10.965      280
   10.980      279
   10.995      273
   11.010      278
   11.025      281
   11.040      272
   11.055      287
   11.070      281
   11.085      274
   11.100      274
   11.115      263
   11.130      271
   11.145      266
   11.160      270
   11.175      277
   11.190      290
   11.205      267
   11.220      249
   11.235      262
   11.250      266
   11.265      265
   11.280      244
   11.295      231
   11.310      262
   11.325      267
   11.340      270
   11.355      245
   11.370      254
   11.385      272
   11.400      253
   11.415      245
   11.430      238
   11.445      250
   11.460      250
   11.475      248
   11.490      258
   11.505      249
   11.520      274
   11.535      284
   11.550      282
   11.565      267
   11.580      252
   11.595      259
   11.610      246
   11.625      268
   11.640      261
   11.655      288
   11.670      285
   11.685      301
   11.700      260
   11.715      254
   11.730      300
   11.745      287
   11.760      293
   11.775      271
   11.790      294
   11.805      285
   11.820      287
   11.835      302
   11.850      285
   11.865      279
   11.880      268
   11.895      295
   11.910      297
   11.925      307
   11.940      263
   11.955      278
   11.970      241
   11.985      313
   12.000      252
   12.015      285
   12.030      283
   12.045      245
   12.060      281
   12.075      308
   12.090      282
   12.105      284
   12.120      289
   12.135      290
   12.150      310
   12.165      283
   12.180      292
   12.195      282
   12.210      279
   12.225      278
   12.240      315
   12.255      282
   12.270      282
   12.285      280
   12.300      308
   12.315      296
   12.330      290
   12.345      262
   12.360      307
   12.375      281
   12.390      297
   12.405      293
   12.420      272
   12.435      276
   12.450      256
   12.465      281
   12.480      293
   12.495      267
   12.510      291
   12.525      286
   12.540      271
   12.555      283
   12.570      280
   12.585      278
   12.600      273
   12.615      269
   12.630      256
   12.645      254
   12.660      271
   12.675      293
   12.690      254
   12.705      232
   12.720      243
   12.735      268
   12.750      248
   12.765      277
   12.780      280
   12.795      280
   12.810      275
   12.825      275
   12.840      249
   12.855      265
   12.870      287
   12.885      272
   12.900      253
   12.915      273
   12.930      283
   12.945      285
   12.960      274
   12.975      265
   12.990      271
   13.005      249
   13.020      269
   13.035      284
   13.050      249
   13.065      259
   13.080      262
   13.095      260
   13.110      253
   13.125      260
   13.140      277
   13.155      248
   13.170      242
   13.185      266
   13.200      275
   13.215      255
   13.230      240
   13.245      253
   13.260      248
   13.275      244
   13.290      274
   13.305      272
   13.320      275
   13.335      291
   13.350      270
   13.365      286
   13.380      262
   13.395      296
   13.410      276
   13.425      297
   13.440      318
   13.455      327
   13.470      354
   13.485      367
   13.500      377
   13.515      392
   13.530      405
   13.545      497
   13.560      542
   13.575      642
   13.590      799
   13.605      966
   13.620     1180
   13.635     1502
   13.650     1796
   13.665     2215
   13.680     2609
   13.695     3102
   13.710     3769
   13.725     4541
   13.740     5456
   13.755     6608
   13.770     7697
   13.785     9306
   13.800    11322
   13.815    13512
   13.830    16809
   13.845    20982
   13.860    23479
   13.875    23692
   13.890    21648
   13.905    17458
   13.920    12176
   13.935     7233
   13.950     4104
   13.965     2523
   13.980     1723
   13.995     1248
   14.010     1033
   14.025      894
   14.040      716
   14.055      619
   14.070      544
   14.085      497
   14.100      445
   14.115      404
   14.130      411
   14.145      379
   14.160      370
   14.175      369
   14.190      352
   14.205      364
   14.220      380
   14.235      387
   14.250      388
   14.265      422
   14.280      433
   14.295      412
   14.310      446
   14.325      498
   14.340      533
   14.355      514
   14.370      453
   14.385      400
   14.400      351
   14.415      334
   14.430      307
   14.445      288
   14.460      291
   14.475      285
   14.490      294
   14.505      294
   14.520      289
   14.535      301
   14.550      295
   14.565      290
   14.580      314
   14.595      272
   14.610      270
   14.625      268
   14.640      250
   14.655      248
   14.670      276
   14.685      246
   14.700      250
   14.715      227
   14.730      241
   14.745      252
   14.760      252
   14.775      264
   14.790      276
   14.805      236
   14.820      227
   14.835      243
   14.850      245
   14.865      253
   14.880      243
   14.895      243
   14.910      247
   14.925      220
   14.940      218
   14.955      222
   14.970      234
   14.985      244
   15.000      223
   15.015      228
   15.030      226
   15.045      222
   15.060      222
   15.075      212
   15.090      227
   15.105      224
   15.120      218
   15.135      211
   15.150      237
   15.165      224
   15.180      218
   15.195      234
   15.210      227
   15.225      235
   15.240      213
   15.255      216
   15.270      212
   15.285      226
   15.300      221
   15.315      226
   15.330      211
   15.345      231
   15.360      240
   15.375      236
   15.390      222
   15.405      198
   15.420      212
   15.435      208
   15.450      220
   15.465      198
   15.480      212
   15.495      209
   15.510      203
   15.525      189
   15.540      200
   15.555      221
   15.570      234
   15.585      215
   15.600      233
   15.615      209
   15.630      209
   15.645      248
   15.660      226
   15.675      223
   15.690      207
   15.705      224
   15.720      218
   15.735      230
   15.750      210
   15.765      217
   15.780      201
   15.795      200
   15.810      224
   15.825      250
   15.840      244
   15.855      227
   15.870      222
   15.885      242
   15.900      222
   15.915      234
   15.930      228
   15.945      255
   15.960      225
   15.975      260
   15.990      240
   16.005      240
   16.020      294
   16.035      319
   16.050      322
   16.065      416
   16.080      444
   16.095      545
   16.110      656
   16.125      767
   16.140      910
   16.155     1116
   16.170     1340
   16.185     1591
   16.200     1985
   16.215     2387
   16.230     2878
   16.245     3540
   16.260     4165
   16.275     4677
   16.290     5109
   16.305     4561
   16.320     3593
   16.335     2607
   16.350     1700
   16.365     1115
   16.380      778
   16.395      568
   16.410      440
   16.425      404
   16.440      354
   16.455      311
   16.470      286
   16.485      265
   16.500      265
   16.515      285
   16.530      271
   16.545      239
   16.560      216
   16.575      219
   16.590      203
   16.605      192
   16.620      200
   16.635      220
   16.650      206
   16.665      195
   16.680      198
   16.695      210
   16.710      206
   16.725      205
   16.740      218
   16.755      209
   16.770      214
   16.785      214
   16.800      204
   16.815      220
   16.830      252
   16.845      291
   16.860      300
   16.875      277
   16.890      281
   16.905      313
   16.920      317
   16.935      331
   16.950      359
   16.965      411
   16.980      456
   16.995      501
   17.010      535
   17.025      541
   17.040      483
   17.055      405
   17.070      350
   17.085      284
   17.100      246
   17.115      213
   17.130      219
   17.145      206
   17.160      204
   17.175      220
   17.190      216
   17.205      215
   17.220      217
   17.235      197
   17.250      203
   17.265      217
   17.280      215
   17.295      204
   17.310      213
   17.325      184
   17.340      189
   17.355      216
   17.370      177
   17.385      198
   17.400      198
   17.415      206
   17.430      154
   17.445      194
   17.460      215
   17.475      179
   17.490      187
   17.505      182
   17.520      185
   17.535      193
   17.550      180
   17.565      196
   17.580      176
   17.595      205
   17.610      195
   17.625      179
   17.640      182
   17.655      161
   17.670      181
   17.685      200
   17.700      196
   17.715      191
   17.730      211
   17.745      206
   17.760      199
   17.775      199
   17.790      205
   17.805      205
   17.820      193
   17.835      187
   17.850      202
   17.865      196
   17.880      204
   17.895      235
   17.910      220
   17.925      233
   17.940      248
   17.955      234
   17.970      235
   17.985      254
   18.000      269
   18.015      286
   18.030      272
   18.045      238
   18.060      229
   18.075      229
   18.090      205
   18.105      211
   18.120      195
   18.135      198
   18.150      203
   18.165      201
   18.180      201
   18.195      202
   18.210      179
   18.225      163
   18.240      181
   18.255      173
   18.270      182
   18.285      188
   18.300      175
   18.315      191
   18.330      191
   18.345      182
   18.360      199
   18.375      163
   18.390      185
   18.405      178
   18.420      175
   18.435      179
   18.450      170
   18.465      181
   18.480      209
   18.495      182
   18.510      196
   18.525      205
   18.540      197
   18.555      185
   18.570      190
   18.585      183
   18.600      186
   18.615      183
   18.630      183
   18.645      194
   18.660      204
   18.675      196
   18.690      181
   18.705      172
   18.720      167
   18.735      174
   18.750      185
   18.765      188
   18.780      180
   18.795      170
   18.810      174
   18.825      175
   18.840      175
   18.855      189
   18.870      194
   18.885      191
   18.900      193
   18.915      189
   18.930      182
   18.945      188
   18.960      193
   18.975      193
   18.990      191
   19.005      196
   19.020      196
   19.035      189
   19.050      184
   19.065      187
   19.080      194
   19.095      204
   19.110      213
   19.125      211
   19.140      209
   19.155      202
   19.170      191
   19.185      188
   19.200      194
   19.215      199
   19.230      188
   19.245      195
   19.260      209
   19.275      208
   19.290      207
   19.305      209
   19.320      218
   19.335      220
   19.350      218
   19.365      225
   19.380      231
   19.395      229
   19.410      237
   19.425      254
   19.440      267
   19.455      287
   19.470      320
   19.485      363
   19.500      423
   19.515      495
   19.530      584
   19.545      701
   19.560      826
   19.575      980
   19.590     1203
   19.605     1497
   19.620     1830
   19.635     2207
   19.650     2642
   19.665     3148
   19.680     3657
   19.695     3978
   19.710     3930
   19.725     3474
   19.740     2693
   19.755     1812
   19.770     1114
   19.785      654
   19.800      417
   19.815      324
   19.830      276
   19.845      257
   19.860      248
   19.875      241
   19.890      232
   19.905      221
   19.920      223
   19.935      219
   19.950      212
   19.965      216
   19.980      221
   19.995      220
   20.010      215
   20.025      217
   20.040      200
   20.055      194
   20.070      208
   20.085      208
   20.100      213
   20.115      231
   20.130      225
   20.145      219
   20.160      229
   20.175      224
   20.190      207
   20.205      205
   20.220      213
   20.235      221
   20.250      218
   20.265      218
   20.280      228
   20.295      214
   20.310      206
   20.325      213
   20.340      212
   20.355      205
   20.370      209
   20.385      222
   20.400      224
   20.415      212
   20.430      210
   20.445      212
   20.460      203
   20.475      193
   20.490      188
   20.505      192
   20.520      206
   20.535      222
   20.550      211
   20.565      196
   20.580      198
   20.595      191
   20.610      195
   20.625      204
   20.640      191
   20.655      193
   20.670      198
   20.685      202
   20.700      212
   20.715      210
   20.730      203
   20.745      210
   20.760      219
   20.775      209
   20.790      203
   20.805      210
   20.820      217
   20.835      219
   20.850      218
   20.865      221
   20.880      208
   20.895      184
   20.910      191
   20.925      209
   20.940      220
   20.955      226
   20.970      211
   20.985      211
   21.000      215
   21.015      212
   21.030      208
   21.045      211
   21.060      217
   21.075      231
   21.090      234
   21.105      218
   21.120      214
   21.135      214
   21.150      223
   21.165      228
   21.180      233
   21.195      241
   21.210      238
   21.225      227
   21.240      232
   21.255      251
   21.270      262
   21.285      279
   21.300      325
   21.315      383
   21.330      428
   21.345      470
   21.360      563
   21.375      674
   21.390      806
   21.405      982
   21.420     1189
   21.435     1456
   21.450     1694
   21.465     1893
   21.480     2104
   21.495     2136
   21.510     1942
   21.525     1582
   21.540     1153
   21.555      777
   21.570      503
   21.585      365
   21.600      293
   21.615      253
   21.630      254
   21.645      254
   21.660      259
   21.675      259
   21.690      249
   21.705      245
   21.720      254
   21.735      257
   21.750      252
   21.765      261
   21.780      275
   21.795      282
   21.810      276
   21.825      268
   21.840      264
   21.855      255
   21.870      241
   21.885      239
   21.900      249
   21.915      267
   21.930      276
   21.945      289
   21.960      305
   21.975      324
   21.990      357
   22.005      405
   22.020      447
   22.035      476
   22.050      500
   22.065      495
   22.080      452
   22.095      399
   22.110      343
   22.125      295
   22.140      257
   22.155      220
   22.170      206
   22.185      212
   22.200      211
   22.215      211
   22.230      216
   22.245      218
   22.260      220
   22.275      219
   22.290      222
   22.305      222
   22.320      217
   22.335      220
   22.350      228
   22.365      223
   22.380      213
   22.395      208
   22.410      209
   22.425      212
   22.440      217
   22.455      225
   22.470      223
   22.485      216
   22.500      215
   22.515      217
   22.530      221
   22.545      226
   22.560      219
   22.575      215
   22.590      224
   22.605      225
   22.620      217
   22.635      213
   22.650      209
   22.665      212
   22.680      227
   22.695      237
   22.710      238
   22.725      232
   22.740      225
   22.755      227
   22.770      234
   22.785      235
   22.800      225
   22.815      221
   22.830      227
   22.845      233
   22.860      230
   22.875      229
   22.890      239
   22.905      244
   22.920      237
   22.935      228
   22.950      228
   22.965      235
   22.980      252
   22.995      259
   23.010      238
   23.025      223
   23.040      232
   23.055      233
   23.070      248
   23.085      274
   23.100      280
   23.115      273
   23.130      278
   23.145      289
   23.160      275
   23.175      268
   23.190      263
   23.205      249
   23.220      253
   23.235      250
   23.250      242
   23.265      246
   23.280      250
   23.295      247
   23.310      239
   23.325      235
   23.340      237
   23.355      246
   23.370      252
   23.385      246
   23.400      240
   23.415      244
   23.430      254
   23.445      238
   23.460      222
   23.475      228
   23.490      230
   23.505      229
   23.520      243
   23.535      244
   23.550      228
   23.565      225
   23.580      241
   23.595      251
   23.610      242
   23.625      240
   23.640      248
   23.655      255
   23.670      261
   23.685      258
   23.700      264
   23.715      274
   23.730      271
   23.745      267
   23.760      265
   23.775      280
   23.790      280
   23.805      260
   23.820      266
   23.835      286
   23.850      287
   23.865      287
   23.880      302
   23.895      311
   23.910      306
   23.925      317
   23.940      339
   23.955      378
   23.970      424
   23.985      464
   24.000      559
   24.015      713
   24.030      929
   24.045     1168
   24.060     1456
   24.075     1900
   24.090     2430
   24.105     3048
   24.120     3769
   24.135     4598
   24.150     5660
   24.165     6698
   24.180     7406
   24.195     7441
   24.210     6567
   24.225     5236
   24.240     3787
   24.255     2365
   24.270     1341
   24.285      830
   24.300      583
   24.315      472
   24.330      427
   24.345      363
   24.360      313
   24.375      302
   24.390      297
   24.405      276
   24.420      260
   24.435      277
   24.450      285
   24.465      276
   24.480      295
   24.495      284
   24.510      260
   24.525      275
   24.540      289
   24.555      275
   24.570      265
   24.585      270
   24.600      276
   24.615      275
   24.630      271
   24.645      275
   24.660      261
   24.675      243
   24.690      242
   24.705      241
   24.720      241
   24.735      237
   24.750      245
   24.765      252
   24.780      245
   24.795      236
   24.810      229
   24.825      230
   24.840      234
   24.855      238
   24.870      246
   24.885      236
   24.900      234
   24.915      250
   24.930      252
   24.945      235
   24.960      226
   24.975      247
   24.990      250
   25.005      240
   25.020      255
   25.035      259
   25.050      252
   25.065      239
   25.080      240
   25.095      253
   25.110      235
   25.125      229
   25.140      235
   25.155      235
   25.170      246
   25.185      260
   25.200      256
   25.215      235
   25.230      228
   25.245      236
   25.260      229
   25.275      226
   25.290      239
   25.305      241
   25.320      241
   25.335      246
   25.350      241
   25.365      239
   25.380      247
   25.395      250
   25.410      252
   25.425      250
   25.440      250
   25.455      275
   25.470      297
   25.485      299
   25.500      310
   25.515      340
   25.530      381
   25.545      435
   25.560      509
   25.575      614
   25.590      754
   25.605      920
   25.620     1100
   25.635     1290
   25.650     1475
   25.665     1612
   25.680     1655
   25.695     1576
   25.710     1379
   25.725     1116
   25.740      851
   25.755      614
   25.770      433
   25.785      325
   25.800      294
   25.815      289
   25.830      261
   25.845      249
   25.860      256
   25.875      255
   25.890      243
   25.905      228
   25.920      221
   25.935      224
   25.950      226
   25.965      228
   25.980      215
   25.995      207
   26.010      218
   26.025      222
   26.040      221
   26.055      230
   26.070      231
   26.085      224
   26.100      229
   26.115      236
   26.130      235
   26.145      227
   26.160      225
   26.175      228
   26.190      243
   26.205      251
   26.220      245
   26.235      241
   26.250      236
   26.265      233
   26.280      236
   26.295      237
   26.310      220
   26.325      207
   26.340      216
   26.355      220
   26.370      208
   26.385      202
   26.400      186
   26.415      190
   26.430      216
   26.445      212
   26.460      213
   26.475      222
   26.490      217
   26.505      206
   26.520      225
   26.535      236
   26.550      229
   26.565      242
   26.580      230
   26.595      208
   26.610      223
   26.625      230
   26.640      207
   26.655      212
   26.670      233
   26.685      224
   26.700      210
   26.715      218
   26.730      222
   26.745      212
   26.760      209
   26.775      211
   26.790      203
   26.805      205
   26.820      208
   26.835      186
   26.850      181
   26.865      195
   26.880      191
   26.895      196
   26.910      195
   26.925      188
   26.940      196
   26.955      201
   26.970      203
   26.985      207
   27.000      206
   27.015      201
   27.030      191
   27.045      185
   27.060      192
   27.075      208
   27.090      206
   27.105      200
   27.120      209
   27.135      224
   27.150      224
   27.165      207
   27.180      217
   27.195      224
   27.210      212
   27.225      202
   27.240      190
   27.255      203
   27.270      221
   27.285      214
   27.300      215
   27.315      231
   27.330      237
   27.345      227
   27.360      223
   27.375      223
   27.390      211
   27.405      210
   27.420      215
   27.435      218
   27.450      222
   27.465      219
   27.480      218
   27.495      215
   27.510      209
   27.525      211
   27.540      220
   27.555      229
   27.570      229
   27.585      228
   27.600      224
   27.615      223
   27.630      232
   27.645      231
   27.660      220
   27.675      227
   27.690      231
   27.705      217
   27.720      224
   27.735      237
   27.750      247
   27.765      263
   27.780      273
   27.795      289
   27.810      300
   27.825      318
   27.840      363
   27.855      433
   27.870      511
   27.885      603
   27.900      727
   27.915      864
   27.930     1060
   27.945     1327
   27.960     1618
   27.975     1838
   27.990     1968
   28.005     2011
   28.020     1867
   28.035     1611
   28.050     1306
   28.065      953
   28.080      650
   28.095      442
   28.110      342
   28.125      303
   28.140      277
   28.155      259
   28.170      246
   28.185      240
   28.200      241
   28.215      233
   28.230      232
   28.245      236
   28.260      213
   28.275      204
   28.290      202
   28.305      194
   28.320      195
   28.335      205
   28.350      216
   28.365      221
   28.380      209
   28.395      206
   28.410      215
   28.425      206
   28.440      216
   28.455      212
   28.470      205
   28.485      207
   28.500      213
   28.515      221
   28.530      207
   28.545      190
   28.560      196
   28.575      222
   28.590      224
   28.605      217
   28.620      217
   28.635      212
   28.650      207
   28.665      211
   28.680      221
   28.695      220
   28.710      210
   28.725      204
   28.740      206
   28.755      206
   28.770      206
   28.785      207
   28.800      215
   28.815      216
   28.830      203
   28.845      215
   28.860      224
   28.875      216
   28.890      219
   28.905      222
   28.920      213
   28.935      210
   28.950      218
   28.965      216
   28.980      208
   28.995      221
   29.010      221
   29.025      208
   29.040      218
   29.055      224
   29.070      225
   29.085      232
   29.100      239
   29.115      244
   29.130      252
   29.145      272
   29.160      303
   29.175      342
   29.190      384
   29.205      452
   29.220      578
   29.235      745
   29.250      921
   29.265     1116
   29.280     1287
   29.295     1412
   29.310     1482
   29.325     1430
   29.340     1279
   29.355     1079
   29.370      848
   29.385      625
   29.400      455
   29.415      350
   29.430      298
   29.445      270
   29.460      248
   29.475      240
   29.490      239
   29.505      235
   29.520      240
   29.535      241
   29.550      234
   29.565      221
   29.580      208
   29.595      208
   29.610      206
   29.625      195
   29.640      203
   29.655      218
   29.670      211
   29.685      214
   29.700      227
   29.715      231
   29.730      231
   29.745      227
   29.760      227
   29.775      217
   29.790      210
   29.805      209
   29.820      198
   29.835      195
   29.850      191
   29.865      190
   29.880      208
   29.895      219
   29.910      216
   29.925      209
   29.940      198
   29.955      204
   29.970      213
   29.985      203
   30.000      192
   30.015      188
   30.030      192
   30.045      189
   30.060      190
   30.075      193
   30.090      190
   30.105      198
   30.120      198
   30.135      197
   30.150      197
   30.165      200
   30.180      197
   30.195      182
   30.210      180
   30.225      187
   30.240      193
   30.255      178
   30.270      173
   30.285      201
   30.300      218
   30.315      218
   30.330      208
   30.345      201
   30.360      204
   30.375      212
   30.390      210
   30.405      194
   30.420      194
   30.435      196
   30.450      196
   30.465      196
   30.480      193
   30.495      200
   30.510      199
   30.525      198
   30.540      210
   30.555      208
   30.570      202
   30.585      210
   30.600      197
   30.615      182
   30.630      183
   30.645      178
   30.660      195
   30.675      204
   30.690      206
   30.705      216
   30.720      215
   30.735      201
   30.750      199
   30.765      211
   30.780      214
   30.795      200
   30.810      201
   30.825      207
   30.840      199
   30.855      189
   30.870      191
   30.885      205
   30.900      217
   30.915      221
   30.930      212
   30.945      214
   30.960      218
   30.975      222
   30.990      226
   31.005      225
   31.020      232
   31.035      234
   31.050      227
   31.065      236
   31.080      234
   31.095      224
   31.110      223
   31.125      229
   31.140      230
   31.155      234
   31.170      236
   31.185      251
   31.200      287
   31.215      348
   31.230      400
   31.245      463
   31.260      557
   31.275      673
   31.290      838
   31.305     1039
   31.320     1287
   31.335     1569
   31.350     1873
   31.365     2188
   31.380     2375
   31.395     2326
   31.410     2070
   31.425     1762
   31.440     1442
   31.455     1077
   31.470      741
   31.485      525
   31.500      404
   31.515      326
   31.530      282
   31.545      264
   31.560      248
   31.575      250
   31.590      245
   31.605      234
   31.620      238
   31.635      216
   31.650      200
   31.665      213
   31.680      228
   31.695      229
   31.710      219
   31.725      226
   31.740      231
   31.755      214
   31.770      213
   31.785      209
   31.800      200
   31.815      201
   31.830      196
   31.845      198
   31.860      201
   31.875      199
   31.890      191
   31.905      183
   31.920      186
   31.935      195
   31.950      203
   31.965      204
   31.980      201
   31.995      197
   32.010      200
   32.025      199
   32.040      189
   32.055      194
   32.070      199
   32.085      191
   32.100      193
   32.115      207
   32.130      209
   32.145      193
   32.160      181
   32.175      185
   32.190      199
   32.205      198
   32.220      194
   32.235      191
   32.250      177
   32.265      184
   32.280      202
   32.295      204
   32.310      198
   32.325      188
   32.340      186
   32.355      191
   32.370      190
   32.385      189
   32.400      199
   32.415      217
   32.430      234
   32.445      236
   32.460      245
   32.475      281
   32.490      316
   32.505      361
   32.520      428
   32.535      482
   32.550      537
   32.565      577
   32.580      546
   32.595      511
   32.610      499
   32.625      451
   32.640      371
   32.655      313
   32.670      264
   32.685      219
   32.700      196
   32.715      193
   32.730      192
   32.745      193
   32.760      207
   32.775      202
   32.790      195
   32.805      193
   32.820      191
   32.835      199
   32.850      201
   32.865      202
   32.880      207
   32.895      200
   32.910      191
   32.925      198
   32.940      202
   32.955      190
   32.970      183
   32.985      186
   33.000      197
   33.015      210
   33.030      205
   33.045      185
   33.060      173
   33.075      168
   33.090      178
   33.105      187
   33.120      183
   33.135      183
   33.150      188
   33.165      186
   33.180      191
   33.195      195
   33.210      183
   33.225      175
   33.240      181
   33.255      188
   33.270      183
   33.285      186
   33.300      199
   33.315      191
   33.330      185
   33.345      197
   33.360      195
   33.375      181
   33.390      176
   33.405      186
   33.420      192
   33.435      187
   33.450      187
   33.465      194
   33.480      195
   33.495      190
   33.510      188
   33.525      182
   33.540      171
   33.555      177
   33.570      185
   33.585      184
   33.600      188
   33.615      184
   33.630      170
   33.645      167
   33.660      174
   33.675      181
   33.690      177
   33.705      169
   33.720      164
   33.735      159
   33.750      161
   33.765      175
   33.780      177
   33.795      162
   33.810      166
   33.825      173
   33.840      176
   33.855      184
   33.870      181
   33.885      177
   33.900      177
   33.915      175
   33.930      176
   33.945      169
   33.960      163
   33.975      165
   33.990      173
   34.005      178
   34.020      178
   34.035      176
   34.050      174
   34.065      173
   34.080      166
   34.095      161
   34.110      169
   34.125      180
   34.140      181
   34.155      172
   34.170      170
   34.185      173
   34.200      178
   34.215      181
   34.230      182
   34.245      177
   34.260      170
   34.275      178
   34.290      190
   34.305      206
   34.320      220
   34.335      231
   34.350      244
   34.365      268
   34.380      316
   34.395      351
   34.410      390
   34.425      439
   34.440      480
   34.455      525
   34.470      564
   34.485      557
   34.500      505
   34.515      459
   34.530      407
   34.545      357
   34.560      295
   34.575      255
   34.590      244
   34.605      220
   34.620      208
   34.635      205
   34.650      186
   34.665      181
   34.680      200
   34.695      203
   34.710      188
   34.725      190
   34.740      191
   34.755      181
   34.770      177
   34.785      182
   34.800      179
   34.815      170
   34.830      174
   34.845      172
   34.860      171
   34.875      177
   34.890      174
   34.905      169
   34.920      174
   34.935      171
   34.950      173
   34.965      187
   34.980      191
   34.995      177
   35.010      176
   35.025      171
   35.040      171
   35.055      181
   35.070      177
   35.085      173
   35.100      176
   35.115      176
   35.130      174
   35.145      172
   35.160      173
   35.175      175
   35.190      183
   35.205      190
   35.220      189
   35.235      187
   35.250      186
   35.265      192
   35.280      190
   35.295      176
   35.310      177
   35.325      180
   35.340      178
   35.355      186
   35.370      196
   35.385      204
   35.400      211
   35.415      219
   35.430      232
   35.445      250
   35.460      292
   35.475      346
   35.490      392
   35.505      447
   35.520      527
   35.535      613
   35.550      662
   35.565      661
   35.580      635
   35.595      608
   35.610      567
   35.625      492
   35.640      413
   35.655      343
   35.670      277
   35.685      230
   35.700      210
   35.715      211
   35.730      206
   35.745      206
   35.760      211
   35.775      205
   35.790      196
   35.805      188
   35.820      192
   35.835      186
   35.850      185
   35.865      192
   35.880      199
   35.895      197
   35.910      187
   35.925      185
   35.940      176
   35.955      175
   35.970      185
   35.985      174
   36.000      167
   36.015      181
   36.030      188
   36.045      179
   36.060      180
   36.075      191
   36.090      190
   36.105      177
   36.120      173
   36.135      180
   36.150      180
   36.165      187
   36.180      187
   36.195      188
   36.210      200
   36.225      202
   36.240      186
   36.255      177
   36.270      181
   36.285      188
   36.300      196
   36.315      197
   36.330      194
   36.345      194
   36.360      187
   36.375      177
   36.390      179
   36.405      188
   36.420      177
   36.435      167
   36.450      176
   36.465      187
   36.480      193
   36.495      187
   36.510      183
   36.525      184
   36.540      182
   36.555      189
   36.570      196
   36.585      200
