    0.000        6
    0.015        1
    0.030        7
    0.045        6
    0.060        6
    0.075        9
    0.090        9
    0.105        8
    0.120       10
    0.135        8
    0.150       10
    0.165        9
    0.180       11
    0.195       12
    0.210       12
    0.225       10
    0.240       10
    0.255        7
    0.270        7
    0.285       10
    0.300       11
    0.315       14
    0.330       13
    0.345       17
    0.360       19
    0.375       14
    0.390       14
    0.405       15
    0.420       15
    0.435       14
    0.450       17
    0.465       16
    0.480       13
    0.495       12
    0.510       10
    0.525       10
    0.540       10
    0.555        9
    0.570        8
    0.585        7
    0.600        8
    0.615        7
    0.630        8
    0.645        9
    0.660        8
    0.675        9
    0.690        9
    0.705        8
    0.720        7
    0.735        7
    0.750        8
    0.765        9
    0.780        7
    0.795        6
    0.810        8
    0.825        7
    0.840        8
    0.855       11
    0.870       11
    0.885        9
    0.900        8
    0.915        9
    0.930        7
    0.945        9
    0.960       11
    0.975       10
    0.990       12
    1.005       14
    1.020       16
    1.035       16
    1.050       18
    1.065       19
    1.080       16
    1.095       20
    1.110       22
    1.125       23
    1.140       23
    1.155       24
    1.170       27
    1.185       38
    1.200       33
    1.215       29
    1.230       54
    1.245       49
    1.260       46
    1.275       50
    1.290       56
    1.305       50
    1.320       59
    1.335       76
    1.350       73
    1.365       65
    1.380       72
    1.395       81
    1.410       80
    1.425       87
    1.440       76
    1.455       93
    1.470       83
    1.485       98
    1.500       95
    1.515       81
    1.530       91
    1.545       95
    1.560      106
    1.575      111
    1.590      111
    1.605      118
    1.620      100
    1.635      105
    1.650      107
    1.665      104
    1.680      109
    1.695      119
    1.710      105
    1.725      104
    1.740      117
    1.755      129
    1.770      120
    1.785      112
    1.800      112
    1.815      126
    1.830      118
    1.845      112
    1.860      130
    1.875      132
    1.890      123
    1.905      123
    1.920      141
    1.935      143
    1.950      142
    1.965      148
    1.980      147
    1.995      161
    2.010      163
    2.025      154
    2.040      156
    2.055      175
    2.070      185
    2.085      177
    2.100      185
    2.115      180
    2.130      185
    2.145      206
    2.160      212
    2.175      219
    2.190      224
    2.205      212
    2.220      213
    2.235      207
    2.250      220
    2.265      235
    2.280      230
    2.295      233
    2.310      234
    2.325      217
    2.340      209
    2.355      217
    2.370      228
    2.385      225
    2.400      219
    2.415      228
    2.430      253
    2.445      250
    2.460      247
    2.475      257
    2.490      255
    2.505      263
    2.520      240
    2.535      258
    2.550      253
    2.565      247
    2.580      245
    2.595      267
    2.610      270
    2.625      258
    2.640      279
    2.655      290
    2.670      257
    2.685      236
    2.700      263
    2.715      280
    2.730      263
    2.745      283
    2.760      288
    2.775      279
    2.790      277
    2.805      294
    2.820      266
    2.835      255
    2.850      291
    2.865      286
    2.880      290
    2.895      309
    2.910      315
    2.925      321
    2.940      318
    2.955      328
    2.970      343
    2.985      294
    3.000      293
    3.015      331
    3.030      365
    3.045      360
    3.060      356
    3.075      369
    3.090      350
    3.105      365
    3.120      381
    3.135      400
    3.150      413
    3.165      396
    3.180      383
    3.195      410
    3.210      430
    3.225      420
    3.240      434
    3.255      451
    3.270      460
    3.285      439
    3.300      459
    3.315      476
    3.330      444
    3.345      504
    3.360      477
    3.375      500
    3.390      533
    3.405      554
    3.420      535
    3.435      576
    3.450      566
    3.465      654
    3.480      675
    3.495      670
    3.510      686
    3.525      835
    3.540      787
    3.555      794
    3.570      761
    3.585      722
    3.600      631
    3.615      540
    3.630      540
    3.645      552
    3.660      535
    3.675      535
    3.690      550
    3.705      559
    3.720      572
    3.735      513
    3.750      576
    3.765      537
    3.780      644
    3.795      676
    3.810      669
    3.825      717
    3.840      739
    3.855      842
    3.870      883
    3.885      880
    3.900      897
    3.915      776
    3.930      653
    3.945      578
    3.960      543
    3.975      522
    3.990      528
    4.005      495
    4.020      507
    4.035      541
    4.050      561
    4.065      575
    4.080      619
    4.095      582
    4.110      628
    4.125      626
    4.140      626
    4.155      688
    4.170      766
    4.185      760
    4.200      831
    4.215      731
    4.230      860
    4.245      904
    4.260      957
    4.275     1015
    4.290     1126
    4.305     1185
    4.320     1290
    4.335     1280
    4.350     1207
    4.365     1270
    4.380     1090
    4.395      842
    4.410      717
    4.425      679
    4.440      622
    4.455      622
    4.470      613
    4.485      590
    4.500      609
    4.515      636
    4.530      613
    4.545      620
    4.560      688
    4.575      624
    4.590      627
    4.605      710
    4.620      790
    4.635      731
    4.650      823
    4.665      791
    4.680      900
    4.695      949
    4.710      907
    4.725      884
    4.740      883
    4.755      932
    4.770     1006
    4.785     1028
    4.800     1126
    4.815     1294
    4.830     1415
    4.845     1344
    4.860     1235
    4.875     1009
    4.890      766
    4.905      649
    4.920      648
    4.935      646
    4.950      621
    4.965      584
    4.980      631
    4.995      677
    5.010      695
    5.025      705
    5.040      734
    5.055      700
    5.070      739
    5.085      771
    5.100      770
    5.115      747
    5.130      783
    5.145      761
    5.160      800
    5.175      813
    5.190      881
    5.205      883
    5.220      895
    5.235      993
    5.250     1015
    5.265     1092
    5.280     1166
    5.295     1258
    5.310     1343
    5.325     1452
    5.340     1612
    5.355     1751
    5.370     1828
    5.385     1847
    5.400     1536
    5.415     1381
    5.430     1107
    5.445      889
    5.460      785
    5.475      695
    5.490      717
    5.505      643
    5.520      667
    5.535      677
    5.550      635
    5.565      602
    5.580      648
    5.595      633
    5.610      629
    5.625      648
    5.640      671
    5.655      657
    5.670      652
    5.685      722
    5.700      730
    5.715      779
    5.730      827
    5.745      896
    5.760      911
    5.775      923
    5.790      970
    5.805      986
    5.820      882
    5.835      759
    5.850      698
    5.865      656
    5.880      626
    5.895      601
    5.910      597
    5.925      606
    5.940      622
    5.955      611
    5.970      589
    5.985      546
    6.000      531
    6.015      547
    6.030      545
    6.045      569
    6.060      598
    6.075      561
    6.090      569
    6.105      631
    6.120      615
    6.135      627
    6.150      644
    6.165      638
    6.180      635
    6.195      688
    6.210      728
    6.225      705
    6.240      652
    6.255      628
    6.270      618
    6.285      577
    6.300      581
    6.315      574
    6.330      548
    6.345      535
    6.360      556
    6.375      611
    6.390      603
    6.405      625
    6.420      699
    6.435      671
    6.450      667
    6.465      744
    6.480      771
    6.495      798
    6.510      874
    6.525      945
    6.540      960
    6.555      938
    6.570      857
    6.585      716
    6.600      593
    6.615      546
    6.630      558
    6.645      569
    6.660      513
    6.675      510
    6.690      534
    6.705      559
    6.720      576
    6.735      572
    6.750      571
    6.765      590
    6.780      589
    6.795      592
    6.810      631
    6.825      667
    6.840      625
    6.855      590
    6.870      559
    6.885      598
    6.900      654
    6.915      656
    6.930      686
    6.945      709
    6.960      772
    6.975      792
    6.990      782
    7.005      818
    7.020      902
    7.035      970
    7.050     1024
    7.065     1078
    7.080     1090
    7.095     1012
    7.110      907
    7.125      795
    7.140      717
    7.155      697
    7.170      638
    7.185      585
    7.200      556
    7.215      536
    7.230      548
    7.245      550
    7.260      547
    7.275      604
    7.290      556
    7.305      587
    7.320      631
    7.335      580
    7.350      624
    7.365      660
    7.380      626
    7.395      604
    7.410      646
    7.425      599
    7.440      610
    7.455      612
    7.470      616
    7.485      590
    7.500      633
    7.515      582
    7.530      612
    7.545      677
    7.560      707
    7.575      795
    7.590      763
    7.605      798
    7.620      812
    7.635      921
    7.650      966
    7.665      953
    7.680     1045
    7.695     1076
    7.710     1153
    7.725     1250
    7.740     1323
    7.755     1405
    7.770     1362
    7.785     1389
    7.800     1405
    7.815     1492
    7.830     1499
    7.845     1569
    7.860     1489
    7.875     1361
    7.890     1287
    7.905     1173
    7.920     1141
    7.935     1178
    7.950     1150
    7.965     1195
    7.980     1342
    7.995     1438
    8.010     1402
    8.025     1238
    8.040     1120
    8.055      937
    8.070      744
    8.085      660
    8.100      662
    8.115      627
    8.130      647
    8.145      640
    8.160      644
    8.175      694
    8.190      684
    8.205      686
    8.220      713
    8.235      756
    8.250      769
    8.265      809
    8.280      818
    8.295      828
    8.310      894
    8.325     1033
    8.340     1157
    8.355     1263
    8.370     1376
    8.385     1451
    8.400     1431
    8.415     1350
    8.430     1281
    8.445     1231
    8.460     1213
    8.475     1222
    8.490     1252
    8.505     1290
    8.520     1317
    8.535     1320
    8.550     1302
    8.565     1261
    8.580     1262
    8.595     1246
    8.610     1260
    8.625     1347
    8.640     1336
    8.655     1329
    8.670     1397
    8.685     1457
    8.700     1547
    8.715     1601
    8.730     1544
    8.745     1485
    8.760     1325
    8.775     1078
    8.790      914
    8.805      784
    8.820      700
    8.835      654
    8.850      635
    8.865      615
    8.880      606
    8.895      637
    8.910      703
    8.925      729
    8.940      734
    8.955      703
    8.970      735
    8.985      777
    9.000      804
    9.015      884
    9.030      939
    9.045     1029
    9.060     1091
    9.075     1101
    9.090     1196
    9.105     1327
    9.120     1422
    9.135     1492
    9.150     1578
    9.165     1660
    9.180     1797
    9.195     1930
    9.210     1976
    9.225     1918
    9.240     1849
    9.255     1728
    9.270     1403
    9.285     1169
    9.300      864
    9.315      788
    9.330      746
    9.345      766
    9.360      734
    9.375      771
    9.390      723
    9.405      752
    9.420      750
    9.435      751
    9.450      812
    9.465      816
    9.480      867
    9.495      894
    9.510      991
    9.525     1029
    9.540     1039
    9.555     1076
    9.570      936
    9.585      902
    9.600      877
    9.615      840
    9.630      915
    9.645      886
    9.660      908
    9.675     1016
    9.690     1069
    9.705     1048
    9.720     1028
    9.735      928
    9.750      855
    9.765      729
    9.780      666
    9.795      626
    9.810      617
    9.825      599
    9.840      568
    9.855      593
    9.870      562
    9.885      545
    9.900      544
    9.915      570
    9.930      576
    9.945      609
    9.960      607
    9.975      598
    9.990      588
   10.005      585
   10.020      640
   10.035      632
   10.050      628
   10.065      624
   10.080      607
   10.095      631
   10.110      628
   10.125      590
   10.140      593
   10.155      613
   10.170      565
   10.185      551
   10.200      586
   10.215      611
   10.230      594
   10.245      638
   10.260      649
   10.275      601
   10.290      617
   10.305      661
   10.320      643
   10.335      649
   10.350      661
   10.365      638
   10.380      651
   10.395      696
   10.410      710
   10.425      702
   10.440      691
   10.455      733
   10.470      716
   10.485      697
   10.500      785
   10.515      834
   10.530      853
   10.545      897
   10.560      965
   10.575     1019
   10.590     1100
   10.605     1146
   10.620     1197
   10.635     1261
   10.650     1334
   10.665     1387
   10.680     1396
   10.695     1501
   10.710     1619
   10.725     1684
   10.740     1725
   10.755     1762
   10.770     1792
   10.785     1890
   10.800     2131
   10.815     2337
   10.830     2555
   10.845     2801
   10.860     2812
   10.875     2638
   10.890     2455
   10.905     2150
   10.920     1803
   10.935     1586
   10.950     1523
   10.965     1514
   10.980     1603
   10.995     1699
   11.010     1755
   11.025     1876
   11.040     1966
   11.055     2021
   11.070     2098
   11.085     2209
   11.100     2381
   11.115     2526
   11.130     2609
   11.145     2801
   11.160     3018
   11.175     3280
   11.190     3287
   11.205     2907
   11.220     2315
   11.235     1702
   11.250     1340
   11.265     1077
   11.280      975
   11.295      880
   11.310      811
   11.325      777
   11.340      737
   11.355      714
   11.370      707
   11.385      683
   11.400      660
   11.415      659
   11.430      688
   11.445      705
   11.460      677
   11.475      755
   11.490      791
   11.505      804
   11.520      837
   11.535      826
   11.550      852
   11.565      923
   11.580      972
   11.595      972
   11.610      994
   11.625      950
   11.640      941
   11.655      967
   11.670      929
   11.685      939
   11.700      942
   11.715      921
   11.730      952
   11.745      889
   11.760      896
   11.775      878
   11.790      909
   11.805      853
   11.820      816
   11.835      829
   11.850      844
   11.865      830
   11.880      819
   11.895      855
   11.910      907
   11.925      902
   11.940      889
   11.955      940
   11.970      875
   11.985      896
   12.000      892
   12.015      949
   12.030      855
   12.045      854
   12.060      826
   12.075      723
   12.090      654
   12.105      653
   12.120      641
   12.135      569
   12.150      579
   12.165      613
   12.180      543
   12.195      557
   12.210      555
   12.225      505
   12.240      546
   12.255      540
   12.270      494
   12.285      509
   12.300      549
   12.315      531
   12.330      528
   12.345      532
   12.360      494
   12.375      560
   12.390      516
   12.405      548
   12.420      524
   12.435      509
   12.450      485
   12.465      504
   12.480      483
   12.495      460
   12.510      478
   12.525      478
   12.540      438
   12.555      462
   12.570      488
   12.585      497
   12.600      462
   12.615      479
   12.630      480
   12.645      465
   12.660      485
   12.675      491
   12.690      514
   12.705      551
   12.720      599
   12.735      651
   12.750      633
   12.765      654
   12.780      737
   12.795      721
   12.810      873
   12.825      871
   12.840      913
   12.855      966
   12.870      965
   12.885      900
   12.900      808
   12.915      760
   12.930      678
   12.945      675
   12.960      629
   12.975      638
   12.990      658
   13.005      651
   13.020      659
   13.035      750
   13.050      741
   13.065      769
   13.080      762
   13.095      783
   13.110      799
   13.125      761
   13.140      805
   13.155      739
   13.170      759
   13.185      788
   13.200      794
   13.215      779
   13.230      780
   13.245      772
   13.260      742
   13.275      650
   13.290      652
   13.305      623
   13.320      562
   13.335      581
   13.350      541
   13.365      541
   13.380      541
   13.395      558
   13.410      557
   13.425      552
   13.440      532
   13.455      561
   13.470      561
   13.485      501
   13.500      467
   13.515      461
   13.530      424
   13.545      416
   13.560      426
   13.575      416
   13.590      402
   13.605      430
   13.620      400
   13.635      403
   13.650      405
   13.665      442
   13.680      472
   13.695      460
   13.710      453
   13.725      463
   13.740      474
   13.755      529
   13.770      587
   13.785      620
   13.800      670
   13.815      681
   13.830      690
   13.845      642
   13.860      609
   13.875      556
   13.890      506
   13.905      462
   13.920      452
   13.935      441
   13.950      444
   13.965      455
   13.980      454
   13.995      443
   14.010      448
   14.025      467
   14.040      477
   14.055      437
   14.070      465
   14.085      462
   14.100      432
   14.115      443
   14.130      489
   14.145      505
   14.160      480
   14.175      489
   14.190      500
   14.205      482
   14.220      492
   14.235      470
   14.250      463
   14.265      471
   14.280      446
   14.295      464
   14.310      444
   14.325      429
   14.340      455
   14.355      469
   14.370      470
   14.385      487
   14.400      535
   14.415      511
   14.430      541
   14.445      556
   14.460      577
   14.475      610
   14.490      636
   14.505      703
   14.520      711
   14.535      806
   14.550      854
   14.565      918
   14.580      964
   14.595      926
   14.610      891
   14.625      801
   14.640      741
   14.655      701
   14.670      645
   14.685      560
   14.700      543
   14.715      516
   14.730      476
   14.745      485
   14.760      469
   14.775      461
   14.790      484
   14.805      481
   14.820      509
   14.835      471
   14.850      461
   14.865      469
   14.880      446
   14.895      480
   14.910      476
   14.925      465
   14.940      435
   14.955      397
   14.970      394
   14.985      419
   15.000      408
   15.015      405
   15.030      376
   15.045      375
   15.060      371
   15.075      374
   15.090      346
   15.105      349
   15.120      345
   15.135      358
   15.150      381
   15.165      373
   15.180      388
   15.195      378
   15.210      388
   15.225      379
   15.240      354
   15.255      357
   15.270      387
   15.285      397
   15.300      412
   15.315      409
   15.330      410
   15.345      453
   15.360      437
   15.375      504
   15.390      494
   15.405      484
   15.420      463
   15.435      490
   15.450      527
   15.465      540
   15.480      552
   15.495      528
   15.510      541
   15.525      538
   15.540      556
   15.555      547
   15.570      506
   15.585      496
   15.600      440
   15.615      437
   15.630      438
   15.645      512
   15.660      449
   15.675      426
   15.690      450
   15.705      473
   15.720      498
   15.735      532
   15.750      472
   15.765      507
   15.780      581
   15.795      540
   15.810      590
   15.825      664
   15.840      662
   15.855      667
   15.870      742
   15.885      727
   15.900      723
   15.915      698
   15.930      688
   15.945      663
   15.960      614
   15.975      502
   15.990      477
   16.005      455
   16.020      422
   16.035      393
   16.050      378
   16.065      382
   16.080      379
   16.095      363
   16.110      340
   16.125      366
   16.140      348
   16.155      315
   16.170      323
   16.185      347
   16.200      355
   16.215      386
   16.230      341
   16.245      334
   16.260      331
   16.275      342
   16.290      319
   16.305      333
   16.320      329
   16.335      320
   16.350      331
   16.365      327
   16.380      326
   16.395      346
   16.410      334
   16.425      361
   16.440      371
   16.455      328
   16.470      346
   16.485      364
   16.500      377
   16.515      388
   16.530      388
   16.545      382
   16.560      372
   16.575      365
   16.590      365
   16.605      392
   16.620      420
   16.635      460
   16.650      464
   16.665      465
   16.680      450
   16.695      445
   16.710      459
   16.725      449
   16.740      449
   16.755      424
   16.770      417
   16.785      410
   16.800      397
   16.815      356
   16.830      333
   16.845      337
   16.860      350
   16.875      359
   16.890      369
   16.905      367
   16.920      343
   16.935      357
   16.950      354
   16.965      350
   16.980      338
   16.995      355
   17.010      376
   17.025      360
   17.040      360
   17.055      399
   17.070      400
   17.085      380
   17.100      375
   17.115      406
   17.130      397
   17.145      394
   17.160      401
   17.175      406
   17.190      392
   17.205      414
   17.220      385
   17.235      381
   17.250      419
   17.265      386
   17.280      365
   17.295      394
   17.310      379
   17.325      392
   17.340      395
   17.355      455
   17.370      410
   17.385      367
   17.400      415
   17.415      381
   17.430      384
   17.445      416
   17.460      393
   17.475      417
   17.490      396
   17.505      389
   17.520      425
   17.535      402
   17.550      404
   17.565      405
   17.580      391
   17.595      384
   17.610      412
   17.625      382
   17.640      411
   17.655      443
   17.670      429
   17.685      489
   17.700      467
   17.715      487
   17.730      504
   17.745      514
   17.760      507
   17.775      527
   17.790      498
   17.805      495
   17.820      493
   17.835      476
   17.850      511
   17.865      508
   17.880      484
   17.895      463
   17.910      446
   17.925      444
   17.940      456
   17.955      452
   17.970      420
   17.985      403
   18.000      443
   18.015      459
   18.030      455
   18.045      442
   18.060      462
   18.075      489
   18.090      486
   18.105      483
   18.120      456
   18.135      462
   18.150      495
   18.165      555
   18.180      550
   18.195      583
   18.210      602
   18.225      617
   18.240      692
   18.255      762
   18.270      865
   18.285      870
   18.300      972
   18.315     1098
   18.330     1172
   18.345     1310
   18.360     1348
   18.375     1430
   18.390     1414
   18.405     1490
   18.420     1478
   18.435     1446
   18.450     1515
   18.465     1391
   18.480     1435
   18.495     1506
   18.510     1743
   18.525     1752
   18.540     1801
   18.555     1770
   18.570     1820
   18.585     1783
   18.600     1692
   18.615     1504
   18.630     1339
   18.645     1174
   18.660     1009
   18.675      889
   18.690      791
   18.705      722
   18.720      719
   18.735      749
   18.750      763
   18.765      776
   18.780      801
   18.795      804
   18.810      768
   18.825      757
   18.840      773
   18.855      781
   18.870      769
   18.885      752
   18.900      738
   18.915      730
   18.930      760
   18.945      775
   18.960      740
   18.975      741
   18.990      747
   19.005      715
   19.020      679
   19.035      653
   19.050      653
   19.065      659
   19.080      668
   19.095      709
   19.110      710
   19.125      649
   19.140      670
   19.155      676
   19.170      645
   19.185      656
   19.200      650
   19.215      632
   19.230      652
   19.245      662
   19.260      662
   19.275      684
   19.290      681
   19.305      685
   19.320      673
   19.335      667
   19.350      674
   19.365      664
   19.380      663
   19.395      683
   19.410      712
   19.425      708
   19.440      665
   19.455      663
   19.470      691
   19.485      678
   19.500      648
   19.515      637
   19.530      622
   19.545      604
   19.560      605
   19.575      598
   19.590      584
   19.605      574
   19.620      570
   19.635      579
   19.650      587
   19.665      574
   19.680      560
   19.695      573
   19.710      583
   19.725      572
   19.740      571
   19.755      576
   19.770      584
   19.785      595
   19.800      592
   19.815      578
   19.830      580
   19.845      595
   19.860      612
   19.875      593
   19.890      575
   19.905      592
   19.920      615
   19.935      624
   19.950      631
   19.965      666
   19.980      689
   19.995      681
   20.010      704
   20.025      737
   20.040      728
   20.055      730
   20.070      738
   20.085      712
   20.100      682
   20.115      704
   20.130      702
   20.145      682
   20.160      677
   20.175      654
   20.190      659
   20.205      652
   20.220      613
   20.235      607
   20.250      609
   20.265      604
   20.280      627
   20.295      636
   20.310      596
   20.325      610
   20.340      640
   20.355      631
   20.370      648
   20.385      639
   20.400      612
   20.415      628
   20.430      636
   20.445      603
   20.460      568
   20.475      554
   20.490      568
   20.505      598
   20.520      608
   20.535      613
   20.550      606
   20.565      614
   20.580      641
   20.595      653
   20.610      644
   20.625      626
   20.640      639
   20.655      658
   20.670      640
   20.685      620
   20.700      638
   20.715      621
   20.730      605
   20.745      616
   20.760      615
   20.775      603
   20.790      612
   20.805      614
   20.820      612
   20.835      614
   20.850      605
   20.865      603
   20.880      601
   20.895      596
   20.910      589
   20.925      580
   20.940      586
   20.955      589
   20.970      584
   20.985      605
   21.000      626
   21.015      608
   21.030      577
   21.045      560
   21.060      583
   21.075      610
   21.090      608
   21.105      602
   21.120      583
   21.135      580
   21.150      571
   21.165      545
   21.180      550
   21.195      564
   21.210      582
   21.225      576
   21.240      552
   21.255      573
   21.270      608
   21.285      628
   21.300      647
   21.315      685
   21.330      711
   21.345      745
   21.360      815
   21.375      858
   21.390      876
   21.405      899
   21.420      884
   21.435      882
   21.450      883
   21.465      849
   21.480      825
   21.495      803
   21.510      801
   21.525      773
   21.540      701
   21.555      656
   21.570      632
   21.585      628
   21.600      622
   21.615      610
   21.630      636
   21.645      677
   21.660      682
   21.675      652
   21.690      634
   21.705      655
   21.720      674
   21.735      680
   21.750      686
   21.765      674
   21.780      646
   21.795      619
   21.810      597
   21.825      570
   21.840      577
   21.855      594
   21.870      582
   21.885      591
   21.900      601
   21.915      594
   21.930      581
   21.945      576
   21.960      585
   21.975      578
   21.990      555
   22.005      555
   22.020      567
   22.035      573
   22.050      574
   22.065      565
   22.080      550
   22.095      542
   22.110      539
   22.125      540
   22.140      555
   22.155      562
   22.170      559
   22.185      547
   22.200      539
   22.215      552
   22.230      578
   22.245      571
   22.260      564
   22.275      571
   22.290      561
   22.305      556
   22.320      574
   22.335      603
   22.350      618
   22.365      609
   22.380      597
   22.395      597
   22.410      616
   22.425      631
   22.440      614
   22.455      581
   22.470      555
   22.485      544
   22.500      540
   22.515      529
   22.530      519
   22.545      532
   22.560      536
   22.575      515
   22.590      506
   22.605      503
   22.620      489
   22.635      487
   22.650      492
   22.665      497
   22.680      511
   22.695      529
   22.710      540
   22.725      539
   22.740      526
   22.755      516
   22.770      509
   22.785      498
   22.800      493
   22.815      489
   22.830      482
   22.845      472
   22.860      471
   22.875      470
   22.890      459
   22.905      450
   22.920      438
   22.935      430
   22.950      441
   22.965      449
   22.980      453
   22.995      451
   23.010      436
   23.025      433
   23.040      430
   23.055      420
   23.070      434
   23.085      440
   23.100      413
   23.115      409
   23.130      435
   23.145      437
   23.160      420
   23.175      414
   23.190      420
   23.205      411
   23.220      405
   23.235      417
   23.250      411
   23.265      418
   23.280      442
   23.295      434
   23.310      413
   23.325      410
   23.340      410
   23.355      409
   23.370      407
   23.385      410
   23.400      423
   23.415      444
   23.430      457
   23.445      446
   23.460      440
   23.475      432
   23.490      408
   23.505      408
   23.520      405
   23.535      392
   23.550      405
   23.565      434
   23.580      433
   23.595      418
   23.610      405
   23.625      401
   23.640      413
   23.655      430
   23.670      438
   23.685      433
   23.700      415
   23.715      424
   23.730      446
   23.745      460
   23.760      472
   23.775      486
   23.790      455
   23.805      430
   23.820      425
   23.835      418
   23.850      421
   23.865      418
   23.880      429
   23.895      433
   23.910      407
   23.925      398
   23.940      413
   23.955      403
   23.970      403
   23.985      409
   24.000      393
   24.015      386
   24.030      419
   24.045      421
   24.060      398
   24.075      417
   24.090      438
   24.105      428
   24.120      410
   24.135      394
   24.150      392
   24.165      401
   24.180      403
   24.195      433
   24.210      449
   24.225      441
   24.240      428
   24.255      411
   24.270      420
   24.285      441
   24.300      443
   24.315      460
   24.330      465
   24.345      446
   24.360      445
   24.375      453
   24.390      450
   24.405      408
   24.420      407
   24.435      408
   24.450      399
   24.465      408
   24.480      410
   24.495      384
   24.510      373
   24.525      376
   24.540      382
   24.555      395
   24.570      387
   24.585      404
   24.600      413
   24.615      395
   24.630      406
   24.645      430
   24.660      422
   24.675      409
   24.690      406
   24.705      420
   24.720      448
   24.735      458
   24.750      450
   24.765      430
   24.780      421
   24.795      423
   24.810      433
   24.825      429
   24.840      401
   24.855      388
   24.870      396
   24.885      416
   24.900      413
   24.915      396
   24.930      394
   24.945      393
   24.960      368
   24.975      350
   24.990      356
   25.005      363
   25.020      376
   25.035      371
   25.050      350
   25.065      346
   25.080      363
   25.095      372
   25.110      362
   25.125      351
   25.140      357
   25.155      367
   25.170      378
   25.185      380
   25.200      353
   25.215      332
   25.230      342
   25.245      356
   25.260      343
   25.275      328
   25.290      340
   25.305      353
   25.320      354
   25.335      353
   25.350      361
   25.365      367
   25.380      374
   25.395      371
   25.410      362
   25.425      353
   25.440      349
   25.455      358
   25.470      363
   25.485      360
   25.500      346
   25.515      338
   25.530      350
   25.545      364
   25.560      371
   25.575      370
   25.590      356
   25.605      353
   25.620      361
   25.635      366
   25.650      371
   25.665      365
   25.680      349
   25.695      341
   25.710      343
   25.725      352
   25.740      360
   25.755      361
   25.770      371
   25.785      378
   25.800      372
   25.815      374
   25.830      377
   25.845      382
   25.860      403
   25.875      409
   25.890      398
   25.905      405
   25.920      405
   25.935      395
   25.950      403
   25.965      408
   25.980      403
   25.995      414
   26.010      430
   26.025      417
   26.040      404
   26.055      397
   26.070      378
   26.085      361
   26.100      344
   26.115      336
   26.130      338
   26.145      345
   26.160      338
   26.175      320
   26.190      320
   26.205      327
   26.220      328
   26.235      321
   26.250      334
   26.265      354
   26.280      349
   26.295      333
   26.310      323
   26.325      342
   26.340      362
   26.355      359
   26.370      365
   26.385      375
   26.400      357
   26.415      342
   26.430      346
   26.445      349
   26.460      344
   26.475      316
   26.490      311
   26.505      326
   26.520      342
   26.535      348
   26.550      334
   26.565      311
   26.580      313
   26.595      327
   26.610      331
   26.625      331
   26.640      312
   26.655      313
   26.670      326
   26.685      310
   26.700      302
   26.715      329
   26.730      336
   26.745      336
   26.760      324
   26.775      317
   26.790      320
   26.805      334
   26.820      333
   26.835      321
   26.850      324
   26.865      322
   26.880      325
   26.895      324
   26.910      316
   26.925      315
   26.940      326
   26.955      323
   26.970      329
   26.985      346
   27.000      347
   27.015      347
   27.030      347
   27.045      341
   27.060      335
   27.075      334
   27.090      341
   27.105      329
   27.120      325
   27.135      353
   27.150      362
   27.165      357
   27.180      365
   27.195      365
   27.210      344
   27.225      338
   27.240      358
   27.255      363
   27.270      347
   27.285      343
   27.300      349
   27.315      351
   27.330      357
   27.345      366
   27.360      363
   27.375      351
   27.390      336
   27.405      322
   27.420      327
   27.435      341
   27.450      342
   27.465      333
   27.480      330
   27.495      333
   27.510      330
   27.525      334
   27.540      357
   27.555      367
   27.570      359
   27.585      351
   27.600      337
   27.615      322
   27.630      327
   27.645      342
   27.660      340
   27.675      342
   27.690      359
   27.705      372
   27.720      363
   27.735      345
   27.750      347
   27.765      350
   27.780      356
   27.795      360
   27.810      346
   27.825      356
   27.840      366
   27.855      350
   27.870      354
   27.885      369
   27.900      372
   27.915      366
   27.930      351
   27.945      341
   27.960      342
   27.975      351
   27.990      354
   28.005      341
   28.020      332
   28.035      322
   28.050      325
   28.065      344
   28.080      337
   28.095      326
   28.110      333
   28.125      338
   28.140      319
   28.155      321
   28.170      350
   28.185      346
   28.200      333
   28.215      361
   28.230      375
   28.245      359
   28.260      352
   28.275      355
   28.290      366
   28.305      381
   28.320      387
   28.335      378
   28.350      389
   28.365      404
   28.380      410
   28.395      405
   28.410      401
   28.425      405
   28.440      398
   28.455      401
   28.470      417
   28.485      427
   28.500      432
   28.515      436
   28.530      416
   28.545      394
   28.560      413
   28.575      425
   28.590      402
   28.605      381
   28.620      370
   28.635      378
   28.650      393
   28.665      381
   28.680      351
   28.695      345
   28.710      383
   28.725      384
   28.740      358
   28.755      353
   28.770      351
   28.785      359
   28.800      387
   28.815      395
   28.830      389
   28.845      387
   28.860      381
   28.875      399
   28.890      412
   28.905      397
   28.920      384
   28.935      387
   28.950      388
   28.965      380
   28.980      375
   28.995      380
   29.010      373
   29.025      366
   29.040      365
   29.055      354
   29.070      347
   29.085      355
   29.100      358
   29.115      347
   29.130      346
   29.145      357
   29.160      357
   29.175      355
   29.190      357
   29.205      355
   29.220      355
   29.235      371
   29.250      377
   29.265      358
   29.280      342
   29.295      356
   29.310      375
   29.325      375
   29.340      358
   29.355      339
   29.370      342
   29.385      348
   29.400      337
   29.415      326
   29.430      331
   29.445      345
   29.460      360
   29.475      368
   29.490      372
   29.505      372
   29.520      369
   29.535      381
   29.550      383
   29.565      379
   29.580      386
   29.595      380
   29.610      355
   29.625      334
   29.640      348
   29.655      376
   29.670      371
   29.685      355
   29.700      349
   29.715      347
   29.730      352
   29.745      351
   29.760      355
   29.775      351
   29.790      346
   29.805      356
   29.820      348
   29.835      354
   29.850      363
   29.865      362
   29.880      364
   29.895      359
   29.910      348
   29.925      347
   29.940      355
   29.955      358
   29.970      355
   29.985      360
   30.000      365
   30.015      355
   30.030      341
   30.045      346
   30.060      359
   30.075      356
   30.090      350
   30.105      342
   30.120      330
   30.135      342
   30.150      364
   30.165      364
   30.180      363
   30.195      367
   30.210      344
   30.225      338
   30.240      350
   30.255      349
   30.270      350
   30.285      365
   30.300      369
   30.315      346
   30.330      337
   30.345      342
   30.360      350
   30.375      351
   30.390      344
   30.405      341
   30.420      359
   30.435      345
   30.450      329
   30.465      337
   30.480      326
   30.495      334
   30.510      348
   30.525      344
   30.540      357
   30.555      352
   30.570      336
   30.585      335
   30.600      354
   30.615      354
   30.630      344
   30.645      342
   30.660      341
   30.675      338
   30.690      339
   30.705      357
   30.720      388
   30.735      403
   30.750      388
   30.765      361
   30.780      366
   30.795      383
   30.810      379
   30.825      350
   30.840      343
   30.855      354
   30.870      376
   30.885      400
   30.900      374
   30.915      350
   30.930      358
   30.945      355
   30.960      345
   30.975      342
   30.990      340
   31.005      357
   31.020      360
   31.035      350
   31.050      355
   31.065      361
   31.080      361
   31.095      368
   31.110      374
   31.125      379
   31.140      387
   31.155      399
   31.170      411
   31.185      406
   31.200      412
   31.215      394
   31.230      383
   31.245      392
   31.260      400
   31.275      398
   31.290      380
   31.305      384
   31.320      378
   31.335      360
   31.350      362
   31.365      390
   31.380      390
   31.395      370
   31.410      343
   31.425      329
   31.440      337
   31.455      348
   31.470      349
   31.485      369
   31.500      377
   31.515      360
   31.530      346
   31.545      346
   31.560      356
   31.575      371
   31.590      367
   31.605      360
   31.620      369
   31.635      365
   31.650      349
   31.665      336
   31.680      339
   31.695      339
   31.710      337
   31.725      344
   31.740      365
   31.755      385
   31.770      372
   31.785      362
   31.800      361
   31.815      353
   31.830      359
   31.845      369
   31.860      372
   31.875      367
   31.890      365
   31.905      375
   31.920      375
   31.935      379
   31.950      393
   31.965      397
   31.980      388
   31.995      379
   32.010      371
   32.025      366
   32.040      377
   32.055      374
   32.070      375
   32.085      380
   32.100      365
   32.115      362
   32.130      390
   32.145      407
   32.160      407
   32.175      405
   32.190      398
   32.205      407
   32.220      425
   32.235      433
   32.250      428
   32.265      413
   32.280      403
   32.295      409
   32.310      420
   32.325      408
   32.340      387
   32.355      397
   32.370      414
   32.385      408
   32.400      401
   32.415      393
   32.430      387
   32.445      389
   32.460      379
   32.475      375
   32.490      382
   32.505      387
   32.520      388
   32.535      386
   32.550      404
   32.565      418
   32.580      403
   32.595      384
   32.610      377
   32.625      376
   32.640      374
   32.655      373
   32.670      380
   32.685      373
   32.700      346
   32.715      339
   32.730      360
   32.745      370
   32.760      378
   32.775      376
   32.790      362
   32.805      361
   32.820      353
   32.835      351
   32.850      361
   32.865      368
   32.880      362
   32.895      355
   32.910      358
   32.925      358
   32.940      364
   32.955      373
   32.970      364
   32.985      350
   33.000      346
   33.015      353
   33.030      359
   33.045      358
   33.060      361
   33.075      363
   33.090      367
   33.105      370
   33.120      377
   33.135      396
   33.150      395
   33.165      373
   33.180      375
   33.195      384
   33.210      374
   33.225      367
   33.240      363
   33.255      364
   33.270      371
   33.285      390
   33.300      398
   33.315      375
   33.330      372
   33.345      379
   33.360      365
   33.375      363
   33.390      361
   33.405      352
   33.420      359
   33.435      361
   33.450      352
   33.465      359
   33.480      367
   33.495      360
   33.510      372
   33.525      384
   33.540      370
   33.555      364
   33.570      368
   33.585      372
   33.600      378
   33.615      376
   33.630      379
   33.645      379
   33.660      375
   33.675      386
   33.690      389
   33.705      374
   33.720      380
   33.735      390
   33.750      371
   33.765      342
   33.780      336
   33.795      358
   33.810      377
   33.825      379
   33.840      375
   33.855      354
   33.870      338
   33.885      352
   33.900      361
   33.915      345
   33.930      329
   33.945      329
   33.960      329
   33.975      330
   33.990      334
   34.005      328
   34.020      331
   34.035      341
   34.050      354
   34.065      364
   34.080      340
   34.095      319
   34.110      321
   34.125      330
   34.140      342
   34.155      342
   34.170      336
   34.185      328
   34.200      338
   34.215      368
   34.230      368
   34.245      345
   34.260      338
   34.275      333
   34.290      348
   34.305      362
   34.320      358
   34.335      356
   34.350      332
   34.365      309
   34.380      324
   34.395      365
   34.410      382
   34.425      374
   34.440      350
   34.455      346
   34.470      359
   34.485      358
   34.500      346
   34.515      352
   34.530      362
   34.545      347
   34.560      342
   34.575      357
   34.590      346
   34.605      343
   34.620      342
   34.635      334
   34.650      354
   34.665      347
   34.680      325
   34.695      335
   34.710      339
   34.725      349
   34.740      363
   34.755      340
   34.770      334
   34.785      345
   34.800      342
   34.815      324
   34.830      307
   34.845      349
   34.860      366
   34.875      335
   34.890      309
   34.905      308
   34.920      322
   34.935      322
   34.950      319
   34.965      331
   34.980      338
   34.995      324
   35.010      307
   35.025      311
   35.040      321
   35.055      320
   35.070      324
   35.085      325
   35.100      321
   35.115      327
   35.130      334
   35.145      331
   35.160      319
   35.175      312
   35.190      322
   35.205      327
   35.220      322
   35.235      325
   35.250      337
   35.265      348
   35.280      335
   35.295      326
   35.310      328
   35.325      324
   35.340      321
   35.355      313
   35.370      308
   35.385      311
   35.400      309
   35.415      310
   35.430      311
   35.445      308
   35.460      312
   35.475      305
   35.490      298
   35.505      298
   35.520      293
   35.535      299
   35.550      306
   35.565      309
   35.580      320
   35.595      328
   35.610      317
   35.625      300
   35.640      294
   35.655      295
   35.670      319
   35.685      337
   35.700      326
   35.715      323
   35.730      320
   35.745      299
   35.760      292
   35.775      296
   35.790      291
   35.805      289
   35.820      290
   35.835      285
   35.850      281
   35.865      291
   35.880      308
   35.895      307
   35.910      289
   35.925      287
   35.940      297
   35.955      312
   35.970      306
   35.985      289
   36.000      286
   36.015      288
   36.030      282
   36.045      262
   36.060      269
   36.075      297
   36.090      293
   36.105      299
   36.120      304
   36.135      285
   36.150      265
   36.165      259
   36.180      275
   36.195      290
   36.210      280
   36.225      269
   36.240      272
   36.255      277
   36.270      284
   36.285      280
   36.300      282
   36.315      290
   36.330      297
   36.345      293
   36.360      286
   36.375      268
   36.390      257
   36.405      259
   36.420      250
   36.435      256
   36.450      268
   36.465      264
   36.480      271
   36.495      278
   36.510      273
   36.525      273
   36.540      268
   36.555      259
   36.570      267
   36.585      264
