    0.000        6
    0.015        6
    0.030        7
    0.045        6
    0.060        5
    0.075        4
    0.090        8
    0.105        5
    0.120        6
    0.135        4
    0.150        4
    0.165        9
    0.180        7
    0.195        5
    0.210        7
    0.225        6
    0.240        5
    0.255        4
    0.270        9
    0.285        4
    0.300        5
    0.315        7
    0.330        6
    0.345        5
    0.360        5
    0.375        5
    0.390        4
    0.405        7
    0.420       10
    0.435        7
    0.450        8
    0.465        6
    0.480        5
    0.495        6
    0.510        5
    0.525        6
    0.540        6
    0.555        4
    0.570        2
    0.585        2
    0.600        3
    0.615        2
    0.630        3
    0.645        5
    0.660        5
    0.675        4
    0.690        4
    0.705        4
    0.720        4
    0.735        4
    0.750        4
    0.765        5
    0.780        6
    0.795        6
    0.810        5
    0.825        6
    0.840        7
    0.855        6
    0.870        5
    0.885        6
    0.900        6
    0.915        5
    0.930        6
    0.945        9
    0.960        8
    0.975        8
    0.990        4
    1.005        7
    1.020        6
    1.035       12
    1.050       16
    1.065       15
    1.080       12
    1.095       11
    1.110       15
    1.125       19
    1.140       22
    1.155       24
    1.170       28
    1.185       34
    1.200       36
    1.215       43
    1.230       44
    1.245       49
    1.260       52
    1.275       60
    1.290       51
    1.305       53
    1.320       73
    1.335       63
    1.350       59
    1.365       70
    1.380       82
    1.395       89
    1.410       79
    1.425       89
    1.440       73
    1.455       84
    1.470       75
    1.485       91
    1.500       89
    1.515      104
    1.530      102
    1.545       94
    1.560       95
    1.575      101
    1.590      110
    1.605      109
    1.620      118
    1.635      114
    1.650      102
    1.665      120
    1.680      135
    1.695      109
    1.710      109
    1.725      109
    1.740      122
    1.755      126
    1.770      114
    1.785      103
    1.800      113
    1.815      119
    1.830      130
    1.845      136
    1.860      121
    1.875      121
    1.890      134
    1.905      125
    1.920      126
    1.935      142
    1.950      120
    1.965      116
    1.980      133
    1.995      134
    2.010      136
    2.025      156
    2.040      168
    2.055      161
    2.070      156
    2.085      168
    2.100      180
    2.115      185
    2.130      179
    2.145      188
    2.160      208
    2.175      205
    2.190      206
    2.205      222
    2.220      229
    2.235      218
    2.250      206
    2.265      212
    2.280      219
    2.295      226
    2.310      219
    2.325      213
    2.340      206
    2.355      204
    2.370      213
    2.385      204
    2.400      201
    2.415      203
    2.430      191
    2.445      206
    2.460      238
    2.475      237
    2.490      222
    2.505      226
    2.520      225
    2.535      243
    2.550      239
    2.565      229
    2.580      239
    2.595      234
    2.610      229
    2.625      234
    2.640      224
    2.655      236
    2.670      239
    2.685      233
    2.700      262
    2.715      270
    2.730      264
    2.745      243
    2.760      250
    2.775      268
    2.790      255
    2.805      263
    2.820      294
    2.835      296
    2.850      294
    2.865      297
    2.880      286
    2.895      293
    2.910      322
    2.925      289
    2.940      299
    2.955      299
    2.970      298
    2.985      264
    3.000      289
    3.015      287
    3.030      323
    3.045      307
    3.060      347
    3.075      328
    3.090      312
    3.105      362
    3.120      333
    3.135      327
    3.150      320
    3.165      340
    3.180      320
    3.195      339
    3.210      333
    3.225      345
    3.240      338
    3.255      345
    3.270      332
    3.285      371
    3.300      364
    3.315      380
    3.330      396
    3.345      405
    3.360      409
    3.375      435
    3.390      441
    3.405      423
    3.420      451
    3.435      473
    3.450      443
    3.465      540
    3.480      523
    3.495      562
    3.510      546
    3.525      640
    3.540      683
    3.555      685
    3.570      687
    3.585      612
    3.600      470
    3.615      449
    3.630      431
    3.645      469
    3.660      439
    3.675      465
    3.690      451
    3.705      486
    3.720      455
    3.735      471
    3.750      486
    3.765      494
    3.780      547
    3.795      532
    3.810      578
    3.825      580
    3.840      630
    3.855      673
    3.870      760
    3.885      701
    3.900      752
    3.915      660
    3.930      536
    3.945      466
    3.960      462
    3.975      467
    3.990      463
    4.005      419
    4.020      439
    4.035      434
    4.050      424
    4.065      459
    4.080      477
    4.095      453
    4.110      489
    4.125      557
    4.140      514
    4.155      538
    4.170      595
    4.185      598
    4.200      647
    4.215      641
    4.230      656
    4.245      672
    4.260      680
    4.275      776
    4.290      815
    4.305      885
    4.320      898
    4.335      954
    4.350      953
    4.365      882
    4.380      766
    4.395      680
    4.410      616
    4.425      545
    4.440      556
    4.455      567
    4.470      556
    4.485      511
    4.500      495
    4.515      544
    4.530      554
    4.545      541
    4.560      525
    4.575      522
    4.590      542
    4.605      612
    4.620      619
    4.635      604
    4.650      640
    4.665      671
    4.680      674
    4.695      744
    4.710      714
    4.725      746
    4.740      746
    4.755      789
    4.770      803
    4.785      874
    4.800     1089
    4.815     1173
    4.830     1235
    4.845     1196
    4.860     1031
    4.875      838
    4.890      688
    4.905      542
    4.920      536
    4.935      550
    4.950      541
    4.965      557
    4.980      556
    4.995      591
    5.010      624
    5.025      581
    5.040      533
    5.055      583
    5.070      594
    5.085      637
    5.100      596
    5.115      611
    5.130      688
    5.145      658
    5.160      679
    5.175      653
    5.190      677
    5.205      718
    5.220      696
    5.235      713
    5.250      789
    5.265      836
    5.280      866
    5.295      941
    5.310      921
    5.325      993
    5.340     1121
    5.355     1230
    5.370     1207
    5.385     1201
    5.400     1067
    5.415      963
    5.430      796
    5.445      685
    5.460      606
    5.475      529
    5.490      560
    5.505      574
    5.520      548
    5.535      522
    5.550      531
    5.565      525
    5.580      550
    5.595      509
    5.610      507
    5.625      506
    5.640      519
    5.655      558
    5.670      552
    5.685      566
    5.700      570
    5.715      582
    5.730      599
    5.745      645
    5.760      695
    5.775      745
    5.790      754
    5.805      736
    5.820      714
    5.835      615
    5.850      564
    5.865      545
    5.880      512
    5.895      514
    5.910      483
    5.925      488
    5.940      523
    5.955      485
    5.970      466
    5.985      481
    6.000      482
    6.015      500
    6.030      500
    6.045      508
    6.060      478
    6.075      477
    6.090      488
    6.105      477
    6.120      462
    6.135      469
    6.150      518
    6.165      514
    6.180      516
    6.195      525
    6.210      535
    6.225      539
    6.240      520
    6.255      515
    6.270      517
    6.285      514
    6.300      515
    6.315      501
    6.330      485
    6.345      492
    6.360      501
    6.375      508
    6.390      491
    6.405      510
    6.420      546
    6.435      567
    6.450      598
    6.465      606
    6.480      610
    6.495      658
    6.510      745
    6.525      774
    6.540      751
    6.555      723
    6.570      680
    6.585      591
    6.600      507
    6.615      482
    6.630      477
    6.645      459
    6.660      440
    6.675      431
    6.690      438
    6.705      461
    6.720      441
    6.735      436
    6.750      447
    6.765      461
    6.780      484
    6.795      456
    6.810      492
    6.825      515
    6.840      502
    6.855      486
    6.870      482
    6.885      486
    6.900      518
    6.915      525
    6.930      550
    6.945      536
    6.960      591
    6.975      599
    6.990      631
    7.005      661
    7.020      676
    7.035      707
    7.050      784
    7.065      773
    7.080      784
    7.095      771
    7.110      706
    7.125      681
    7.140      658
    7.155      598
    7.170      537
    7.185      480
    7.200      453
    7.215      453
    7.230      452
    7.245      483
    7.260      499
    7.275      509
    7.290      544
    7.305      526
    7.320      506
    7.335      511
    7.350      526
    7.365      494
    7.380      533
    7.395      557
    7.410      528
    7.425      540
    7.440      523
    7.455      540
    7.470      527
    7.485      524
    7.500      527
    7.515      513
    7.530      568
    7.545      599
    7.560      586
    7.575      641
    7.590      640
    7.605      691
    7.620      667
    7.635      697
    7.650      683
    7.665      732
    7.680      769
    7.695      820
    7.710      936
    7.725      954
    7.740      971
    7.755     1118
    7.770     1097
    7.785     1139
    7.800     1074
    7.815     1119
    7.830     1202
    7.845     1203
    7.860     1151
    7.875     1073
    7.890      973
    7.905      941
    7.920      871
    7.935      899
    7.950      950
    7.965      922
    7.980     1008
    7.995     1088
    8.010     1142
    8.025     1036
    8.040      940
    8.055      849
    8.070      734
    8.085      642
    8.100      643
    8.115      669
    8.130      729
    8.145      790
    8.160      795
    8.175      836
    8.190      888
    8.205      949
    8.220     1002
    8.235     1011
    8.250     1076
    8.265     1166
    8.280     1287
    8.295     1408
    8.310     1522
    8.325     1637
    8.340     1764
    8.355     1934
    8.370     2146
    8.385     2381
    8.400     2548
    8.415     2700
    8.430     2956
    8.445     3583
    8.460     4190
    8.475     4429
    8.490     4141
    8.505     3389
    8.520     2567
    8.535     1858
    8.550     1359
    8.565     1127
    8.580     1027
    8.595      986
    8.610     1001
    8.625     1026
    8.640     1027
    8.655     1045
    8.670     1081
    8.685     1107
    8.700     1130
    8.715     1077
    8.730     1025
    8.745      989
    8.760      911
    8.775      792
    8.790      722
    8.805      660
    8.820      583
    8.835      554
    8.850      570
    8.865      558
    8.880      585
    8.895      639
    8.910      629
    8.925      633
    8.940      625
    8.955      647
    8.970      700
    8.985      759
    9.000      731
    9.015      711
    9.030      771
    9.045      823
    9.060      836
    9.075      828
    9.090      819
    9.105      896
    9.120      962
    9.135     1094
    9.150     1158
    9.165     1191
    9.180     1219
    9.195     1256
    9.210     1366
    9.225     1365
    9.240     1297
    9.255     1131
    9.270     1020
    9.285      889
    9.300      694
    9.315      664
    9.330      618
    9.345      597
    9.360      625
    9.375      644
    9.390      633
    9.405      640
    9.420      624
    9.435      644
    9.450      678
    9.465      667
    9.480      733
    9.495      695
    9.510      751
    9.525      824
    9.540      806
    9.555      868
    9.570      748
    9.585      774
    9.600      833
    9.615      807
    9.630      850
    9.645      825
    9.660      874
    9.675      900
    9.690      972
    9.705      993
    9.720      946
    9.735      947
    9.750      936
    9.765      833
    9.780      819
    9.795      816
    9.810      742
    9.825      690
    9.840      613
    9.855      599
    9.870      513
    9.885      505
    9.900      501
    9.915      516
    9.930      479
    9.945      534
    9.960      549
    9.975      594
    9.990      524
   10.005      520
   10.020      533
   10.035      563
   10.050      568
   10.065      542
   10.080      525
   10.095      556
   10.110      560
   10.125      571
   10.140      515
   10.155      553
   10.170      554
   10.185      597
   10.200      565
   10.215      554
   10.230      586
   10.245      538
   10.260      543
   10.275      563
   10.290      556
   10.305      571
   10.320      548
   10.335      548
   10.350      593
   10.365      592
   10.380      591
   10.395      595
   10.410      597
   10.425      615
   10.440      640
   10.455      633
   10.470      588
   10.485      617
   10.500      673
   10.515      684
   10.530      687
   10.545      717
   10.560      792
   10.575      845
   10.590      899
   10.605      966
   10.620      969
   10.635      992
   10.650     1075
   10.665     1150
   10.680     1210
   10.695     1325
   10.710     1445
   10.725     1507
   10.740     1540
   10.755     1537
   10.770     1566
   10.785     1642
   10.800     1816
   10.815     2080
   10.830     2308
   10.845     2503
   10.860     2511
   10.875     2249
   10.890     1905
   10.905     1617
   10.920     1386
   10.935     1230
   10.950     1189
   10.965     1162
   10.980     1164
   10.995     1219
   11.010     1289
   11.025     1359
   11.040     1408
   11.055     1424
   11.070     1493
   11.085     1604
   11.100     1692
   11.115     1802
   11.130     1811
   11.145     1921
   11.160     2079
   11.175     2130
   11.190     2064
   11.205     1851
   11.220     1498
   11.235     1263
   11.250     1025
   11.265      876
   11.280      798
   11.295      740
   11.310      682
   11.325      636
   11.340      601
   11.355      592
   11.370      578
   11.385      591
   11.400      573
   11.415      558
   11.430      578
   11.445      600
   11.460      653
   11.475      653
   11.490      645
   11.505      699
   11.520      687
   11.535      716
   11.550      742
   11.565      754
   11.580      769
   11.595      809
   11.610      804
   11.625      817
   11.640      747
   11.655      767
   11.670      786
   11.685      751
   11.700      750
   11.715      724
   11.730      776
   11.745      762
   11.760      767
   11.775      766
   11.790      748
   11.805      695
   11.820      641
   11.835      665
   11.850      665
   11.865      657
   11.880      677
   11.895      645
   11.910      650
   11.925      729
   11.940      707
   11.955      709
   11.970      742
   11.985      709
   12.000      695
   12.015      714
   12.030      682
   12.045      643
   12.060      568
   12.075      522
   12.090      509
   12.105      536
   12.120      512
   12.135      517
   12.150      467
   12.165      435
   12.180      460
   12.195      455
   12.210      485
   12.225      434
   12.240      408
   12.255      446
   12.270      421
   12.285      463
   12.300      484
   12.315      477
   12.330      464
   12.345      453
   12.360      453
   12.375      463
   12.390      455
   12.405      451
   12.420      441
   12.435      449
   12.450      439
   12.465      462
   12.480      430
   12.495      397
   12.510      419
   12.525      442
   12.540      394
   12.555      409
   12.570      440
   12.585      422
   12.600      376
   12.615      437
   12.630      427
   12.645      433
   12.660      427
   12.675      432
   12.690      471
   12.705      471
   12.720      484
   12.735      496
   12.750      536
   12.765      547
   12.780      607
   12.795      629
   12.810      686
   12.825      697
   12.840      700
   12.855      770
   12.870      762
   12.885      691
   12.900      613
   12.915      604
   12.930      605
   12.945      552
   12.960      537
   12.975      575
   12.990      553
   13.005      544
   13.020      566
   13.035      635
   13.050      603
   13.065      620
   13.080      671
   13.095      645
   13.110      613
   13.125      628
   13.140      630
   13.155      579
   13.170      590
   13.185      641
   13.200      674
   13.215      687
   13.230      605
   13.245      562
   13.260      568
   13.275      528
   13.290      524
   13.305      509
   13.320      504
   13.335      496
   13.350      492
   13.365      523
   13.380      462
   13.395      465
   13.410      519
   13.425      522
   13.440      538
   13.455      551
   13.470      525
   13.485      498
   13.500      469
   13.515      484
   13.530      477
   13.545      458
   13.560      476
   13.575      506
   13.590      540
   13.605      578
   13.620      603
   13.635      691
   13.650      822
   13.665      935
   13.680     1125
   13.695     1230
   13.710     1478
   13.725     1761
   13.740     2060
   13.755     2419
   13.770     2785
   13.785     3295
   13.800     3965
   13.815     4645
   13.830     5648
   13.845     6734
   13.860     7312
   13.875     7218
   13.890     6650
   13.905     5662
   13.920     4049
   13.935     2526
   13.950     1585
   13.965     1102
   13.980      900
   13.995      742
   14.010      647
   14.025      598
   14.040      558
   14.055      544
   14.070      501
   14.085      494
   14.100      470
   14.115      450
   14.130      462
   14.145      474
   14.160      465
   14.175      466
   14.190      453
   14.205      433
   14.220      464
   14.235      463
   14.250      449
   14.265      458
   14.280      428
   14.295      433
   14.310      444
   14.325      407
   14.340      401
   14.355      454
   14.370      465
   14.385      477
   14.400      464
   14.415      448
   14.430      479
   14.445      482
   14.460      462
   14.475      509
   14.490      544
   14.505      544
   14.520      588
   14.535      670
   14.550      708
   14.565      717
   14.580      755
   14.595      740
   14.610      679
   14.625      672
   14.640      615
   14.655      549
   14.670      534
   14.685      508
   14.700      442
   14.715      406
   14.730      391
   14.745      387
   14.760      416
   14.775      401
   14.790      399
   14.805      400
   14.820      411
   14.835      388
   14.850      364
   14.865      405
   14.880      386
   14.895      399
   14.910      366
   14.925      354
   14.940      385
   14.955      402
   14.970      384
   14.985      381
   15.000      365
   15.015      345
   15.030      333
   15.045      330
   15.060      325
   15.075      313
   15.090      311
   15.105      329
   15.120      304
   15.135      288
   15.150      312
   15.165      308
   15.180      344
   15.195      319
   15.210      341
   15.225      347
   15.240      313
   15.255      325
   15.270      335
   15.285      337
   15.300      331
   15.315      367
   15.330      401
   15.345      345
   15.360      352
   15.375      403
   15.390      418
   15.405      413
   15.420      408
   15.435      429
   15.450      432
   15.465      396
   15.480      393
   15.495      427
   15.510      425
   15.525      436
   15.540      456
   15.555      416
   15.570      406
   15.585      418
   15.600      411
   15.615      418
   15.630      349
   15.645      398
   15.660      364
   15.675      401
   15.690      391
   15.705      383
   15.720      413
   15.735      417
   15.750      428
   15.765      422
   15.780      461
   15.795      435
   15.810      462
   15.825      515
   15.840      527
   15.855      489
   15.870      588
   15.885      555
   15.900      578
   15.915      557
   15.930      523
   15.945      542
   15.960      486
   15.975      397
   15.990      387
   16.005      416
   16.020      372
   16.035      392
   16.050      333
   16.065      378
   16.080      393
   16.095      393
   16.110      403
   16.125      489
   16.140      518
   16.155      516
   16.170      597
   16.185      679
   16.200      853
   16.215      945
   16.230     1146
   16.245     1351
   16.260     1483
   16.275     1559
   16.290     1719
   16.305     1527
   16.320     1256
   16.335      993
   16.350      720
   16.365      579
   16.380      439
   16.395      390
   16.410      383
   16.425      364
   16.440      362
   16.455      352
   16.470      331
   16.485      330
   16.500      346
   16.515      337
   16.530      339
   16.545      354
   16.560      368
   16.575      355
   16.590      336
   16.605      343
   16.620      355
   16.635      391
   16.650      364
   16.665      381
   16.680      415
   16.695      391
   16.710      379
   16.725      399
   16.740      380
   16.755      349
   16.770      354
   16.785      362
   16.800      360
   16.815      346
   16.830      342
   16.845      371
   16.860      352
   16.875      330
   16.890      340
   16.905      343
   16.920      327
   16.935      349
   16.950      378
   16.965      380
   16.980      374
   16.995      395
   17.010      426
   17.025      444
   17.040      425
   17.055      404
   17.070      376
   17.085      348
   17.100      377
   17.115      376
   17.130      359
   17.145      336
   17.160      371
   17.175      370
   17.190      328
   17.205      353
   17.220      364
   17.235      359
   17.250      368
   17.265      358
   17.280      344
   17.295      356
   17.310      390
   17.325      330
   17.340      365
   17.355      345
   17.370      370
   17.385      343
   17.400      356
   17.415      347
   17.430      352
   17.445      357
   17.460      360
   17.475      355
   17.490      361
   17.505      339
   17.520      347
   17.535      304
   17.550      355
   17.565      355
   17.580      344
   17.595      338
   17.610      342
   17.625      344
   17.640      337
   17.655      356
   17.670      380
   17.685      404
   17.700      437
   17.715      409
   17.730      423
   17.745      448
   17.760      413
   17.775      412
   17.790      420
   17.805      418
   17.820      404
   17.835      412
   17.850      440
   17.865      426
   17.880      397
   17.895      394
   17.910      377
   17.925      387
   17.940      392
   17.955      375
   17.970      377
   17.985      395
   18.000      402
   18.015      389
   18.030      398
   18.045      405
   18.060      392
   18.075      405
   18.090      406
   18.105      413
   18.120      429
   18.135      442
   18.150      454
   18.165      474
   18.180      469
   18.195      509
   18.210      509
   18.225      554
   18.240      574
   18.255      590
   18.270      647
   18.285      686
   18.300      729
   18.315      776
   18.330      841
   18.345      940
   18.360      961
   18.375      998
   18.390     1000
   18.405     1098
   18.420     1071
   18.435     1126
   18.450     1111
   18.465     1037
   18.480     1087
   18.495     1147
   18.510     1271
   18.525     1212
   18.540     1262
   18.555     1233
   18.570     1298
   18.585     1165
   18.600     1087
   18.615     1011
   18.630      931
   18.645      829
   18.660      757
   18.675      704
   18.690      641
   18.705      604
   18.720      597
   18.735      625
   18.750      642
   18.765      644
   18.780      663
   18.795      651
   18.810      620
   18.825      606
   18.840      618
   18.855      632
   18.870      635
   18.885      618
   18.900      579
   18.915      571
   18.930      576
   18.945      566
   18.960      584
   18.975      593
   18.990      579
   19.005      552
   19.020      517
   19.035      525
   19.050      535
   19.065      519
   19.080      508
   19.095      509
   19.110      529
   19.125      541
   19.140      546
   19.155      560
   19.170      565
   19.185      575
   19.200      546
   19.215      520
   19.230      524
   19.245      526
   19.260      523
   19.275      528
   19.290      554
   19.305      562
   19.320      556
   19.335      573
   19.350      565
   19.365      560
   19.380      578
   19.395      592
   19.410      592
   19.425      577
   19.440      575
   19.455      586
   19.470      607
   19.485      612
   19.500      589
   19.515      589
   19.530      617
   19.545      652
   19.560      693
   19.575      745
   19.590      794
   19.605      876
   19.620      986
   19.635     1121
   19.650     1289
   19.665     1464
   19.680     1597
   19.695     1606
   19.710     1517
   19.725     1374
   19.740     1182
   19.755      973
   19.770      763
   19.785      614
   19.800      552
   19.815      522
   19.830      508
   19.845      508
   19.860      514
   19.875      511
   19.890      491
   19.905      490
   19.920      529
   19.935      553
   19.950      537
   19.965      526
   19.980      537
   19.995      536
   20.010      550
   20.025      590
   20.040      597
   20.055      598
   20.070      612
   20.085      610
   20.100      594
   20.115      585
   20.130      580
   20.145      548
   20.160      534
   20.175      528
   20.190      537
   20.205      545
   20.220      544
   20.235      561
   20.250      556
   20.265      519
   20.280      498
   20.295      498
   20.310      495
   20.325      503
   20.340      495
   20.355      478
   20.370      496
   20.385      502
   20.400      498
   20.415      505
   20.430      490
   20.445      477
   20.460      483
   20.475      478
   20.490      480
   20.505      502
   20.520      507
   20.535      500
   20.550      509
   20.565      532
   20.580      557
   20.595      538
   20.610      528
   20.625      536
   20.640      579
   20.655      569
   20.670      569
   20.685      580
   20.700      531
   20.715      492
   20.730      499
   20.745      541
   20.760      547
   20.775      538
   20.790      533
   20.805      527
   20.820      538
   20.835      544
   20.850      517
   20.865      487
   20.880      477
   20.895      481
   20.910      475
   20.925      467
   20.940      482
   20.955      497
   20.970      498
   20.985      496
   21.000      498
   21.015      485
   21.030      467
   21.045      474
   21.060      488
   21.075      489
   21.090      484
   21.105      461
   21.120      458
   21.135      461
   21.150      452
   21.165      457
   21.180      459
   21.195      461
   21.210      466
   21.225      489
   21.240      513
   21.255      525
   21.270      545
   21.285      582
   21.300      618
   21.315      663
   21.330      685
   21.345      714
   21.360      773
   21.375      817
   21.390      879
   21.405      965
   21.420     1025
   21.435     1074
   21.450     1131
   21.465     1165
   21.480     1192
   21.495     1167
   21.510     1082
   21.525      958
   21.540      816
   21.555      701
   21.570      611
   21.585      565
   21.600      537
   21.615      522
   21.630      549
   21.645      563
   21.660      562
   21.675      571
   21.690      549
   21.705      516
   21.720      540
   21.735      569
   21.750      541
   21.765      516
   21.780      500
   21.795      491
   21.810      512
   21.825      509
   21.840      491
   21.855      492
   21.870      488
   21.885      491
   21.900      502
   21.915      514
   21.930      517
   21.945      522
   21.960      520
   21.975      510
   21.990      517
   22.005      516
   22.020      538
   22.035      581
   22.050      602
   22.065      580
   22.080      550
   22.095      530
   22.110      529
   22.125      534
   22.140      507
   22.155      473
   22.170      468
   22.185      479
   22.200      491
   22.215      480
   22.230      451
   22.245      454
   22.260      478
   22.275      474
   22.290      462
   22.305      458
   22.320      467
   22.335      484
   22.350      482
   22.365      472
   22.380      482
   22.395      491
   22.410      487
   22.425      490
   22.440      494
   22.455      474
   22.470      454
   22.485      435
   22.500      421
   22.515      433
   22.530      433
   22.545      428
   22.560      431
   22.575      422
   22.590      409
   22.605      413
   22.620      417
   22.635      417
   22.650      411
   22.665      405
   22.680      435
   22.695      457
   22.710      448
   22.725      437
   22.740      417
   22.755      414
   22.770      432
   22.785      428
   22.800      417
   22.815      417
   22.830      408
   22.845      391
   22.860      379
   22.875      392
   22.890      408
   22.905      404
   22.920      389
   22.935      385
   22.950      391
   22.965      391
   22.980      392
   22.995      384
   23.010      363
   23.025      365
   23.040      389
   23.055      393
   23.070      389
   23.085      389
   23.100      382
   23.115      367
   23.130      358
   23.145      360
   23.160      365
   23.175      373
   23.190      372
   23.205      365
   23.220      358
   23.235      358
   23.250      372
   23.265      383
   23.280      369
   23.295      364
   23.310      373
   23.325      358
   23.340      354
   23.355      372
   23.370      382
   23.385      388
   23.400      384
   23.415      369
   23.430      366
   23.445      375
   23.460      380
   23.475      378
   23.490      365
   23.505      358
   23.520      366
   23.535      371
   23.550      372
   23.565      384
   23.580      392
   23.595      381
   23.610      370
   23.625      354
   23.640      359
   23.655      378
   23.670      400
   23.685      412
   23.700      401
   23.715      398
   23.730      406
   23.745      412
   23.760      411
   23.775      412
   23.790      392
   23.805      377
   23.820      378
   23.835      383
   23.850      391
   23.865      379
   23.880      383
   23.895      394
   23.910      387
   23.925      400
   23.940      420
   23.955      418
   23.970      422
   23.985      446
   24.000      485
   24.015      540
   24.030      623
   24.045      708
   24.060      795
   24.075      943
   24.090     1165
   24.105     1377
   24.120     1614
   24.135     1876
   24.150     2202
   24.165     2515
   24.180     2590
   24.195     2415
   24.210     2090
   24.225     1784
   24.240     1459
   24.255     1021
   24.270      718
   24.285      563
   24.300      488
   24.315      463
   24.330      453
   24.345      434
   24.360      415
   24.375      420
   24.390      418
   24.405      402
   24.420      395
   24.435      396
   24.450      397
   24.465      369
   24.480      361
   24.495      338
   24.510      327
   24.525      335
   24.540      363
   24.555      372
   24.570      371
   24.585      355
   24.600      347
   24.615      344
   24.630      339
   24.645      364
   24.660      380
   24.675      388
   24.690      391
   24.705      383
   24.720      379
   24.735      382
   24.750      392
   24.765      410
   24.780      404
   24.795      394
   24.810      386
   24.825      374
   24.840      384
   24.855      384
   24.870      350
   24.885      365
   24.900      379
   24.915      357
   24.930      338
   24.945      337
   24.960      341
   24.975      342
   24.990      345
   25.005      346
   25.020      355
   25.035      350
   25.050      342
   25.065      331
   25.080      329
   25.095      340
   25.110      341
   25.125      349
   25.140      358
   25.155      334
   25.170      323
   25.185      341
   25.200      336
   25.215      311
   25.230      311
   25.245      340
   25.260      353
   25.275      343
   25.290      353
   25.305      348
   25.320      319
   25.335      311
   25.350      327
   25.365      331
   25.380      328
   25.395      331
   25.410      336
   25.425      341
   25.440      343
   25.455      354
   25.470      375
   25.485      383
   25.500      366
   25.515      345
   25.530      363
   25.545      403
   25.560      436
   25.575      464
   25.590      498
   25.605      550
   25.620      608
   25.635      675
   25.650      755
   25.665      780
   25.680      740
   25.695      705
   25.710      656
   25.725      572
   25.740      482
   25.755      416
   25.770      388
   25.785      377
   25.800      379
   25.815      375
   25.830      358
   25.845      352
   25.860      356
   25.875      361
   25.890      351
   25.905      352
   25.920      365
   25.935      365
   25.950      360
   25.965      363
   25.980      368
   25.995      361
   26.010      345
   26.025      336
   26.040      336
   26.055      340
   26.070      339
   26.085      337
   26.100      337
   26.115      331
   26.130      321
   26.145      313
   26.160      317
   26.175      321
   26.190      310
   26.205      301
   26.220      305
   26.235      307
   26.250      305
   26.265      305
   26.280      318
   26.295      328
   26.310      335
   26.325      325
   26.340      313
   26.355      310
   26.370      317
   26.385      318
   26.400      317
   26.415      330
   26.430      318
   26.445      302
   26.460      297
   26.475      293
   26.490      298
   26.505      298
   26.520      296
   26.535      295
   26.550      296
   26.565      284
   26.580      290
   26.595      300
   26.610      287
   26.625      280
   26.640      290
   26.655      305
   26.670      287
   26.685      272
   26.700      281
   26.715      292
   26.730      275
   26.745      285
   26.760      299
   26.775      295
   26.790      279
   26.805      284
   26.820      296
   26.835      274
   26.850      268
   26.865      287
   26.880      313
   26.895      316
   26.910      307
   26.925      295
   26.940      281
   26.955      284
   26.970      289
   26.985      284
   27.000      300
   27.015      313
   27.030      308
   27.045      306
   27.060      302
   27.075      296
   27.090      299
   27.105      306
   27.120      314
   27.135      315
   27.150      311
   27.165      313
   27.180      322
   27.195      321
   27.210      320
   27.225      314
   27.240      312
   27.255      312
   27.270      307
   27.285      312
   27.300      328
   27.315      335
   27.330      324
   27.345      320
   27.360      318
   27.375      312
   27.390      304
   27.405      298
   27.420      307
   27.435      314
   27.450      308
   27.465      298
   27.480      298
   27.495      304
   27.510      311
   27.525      312
   27.540      314
   27.555      317
   27.570      319
   27.585      321
   27.600      313
   27.615      301
   27.630      284
   27.645      284
   27.660      310
   27.675      327
   27.690      322
   27.705      304
   27.720      304
   27.735      317
   27.750      320
   27.765      337
   27.780      349
   27.795      343
   27.810      340
   27.825      354
   27.840      382
   27.855      408
   27.870      431
   27.885      444
   27.900      478
   27.915      549
   27.930      624
   27.945      708
   27.960      809
   27.975      865
   27.990      853
   28.005      807
   28.020      758
   28.035      707
   28.050      618
   28.065      519
   28.080      436
   28.095      347
   28.110      318
   28.125      338
   28.140      337
   28.155      318
   28.170      321
   28.185      320
   28.200      317
   28.215      326
   28.230      323
   28.245      301
   28.260      306
   28.275      318
   28.290      316
   28.305      337
   28.320      347
   28.335      327
   28.350      338
   28.365      342
   28.380      334
   28.395      344
   28.410      346
   28.425      364
   28.440      380
   28.455      384
   28.470      391
   28.485      387
   28.500      386
   28.515      382
   28.530      385
   28.545      367
   28.560      374
   28.575      378
   28.590      356
   28.605      354
   28.620      358
   28.635      348
   28.650      338
   28.665      317
   28.680      316
   28.695      349
   28.710      361
   28.725      344
   28.740      324
   28.755      327
   28.770      329
   28.785      322
   28.800      331
   28.815      326
   28.830      327
   28.845      341
   28.860      349
   28.875      346
   28.890      337
   28.905      345
   28.920      343
   28.935      336
   28.950      336
   28.965      341
   28.980      347
   28.995      341
   29.010      343
   29.025      340
   29.040      325
   29.055      316
   29.070      312
   29.085      311
   29.100      325
   29.115      345
   29.130      345
   29.145      349
   29.160      372
   29.175      388
   29.190      396
   29.205      417
   29.220      456
   29.235      512
   29.250      576
   29.265      630
   29.280      667
   29.295      694
   29.310      701
   29.325      669
   29.340      605
   29.355      546
   29.370      494
   29.385      431
   29.400      385
   29.415      365
   29.430      352
   29.445      343
   29.460      332
   29.475      331
   29.490      343
   29.505      343
   29.520      331
   29.535      326
   29.550      340
   29.565      351
   29.580      349
   29.595      344
   29.610      333
   29.625      323
   29.640      322
   29.655      315
   29.670      305
   29.685      302
   29.700      304
   29.715      313
   29.730      304
   29.745      303
   29.760      305
   29.775      299
   29.790      319
   29.805      331
   29.820      318
   29.835      317
   29.850      326
   29.865      308
   29.880      288
   29.895      302
   29.910      330
   29.925      324
   29.940      306
   29.955      298
   29.970      303
   29.985      308
   30.000      293
   30.015      285
   30.030      286
   30.045      301
   30.060      293
   30.075      300
   30.090      322
   30.105      314
   30.120      304
   30.135      297
   30.150      314
   30.165      300
   30.180      292
   30.195      312
   30.210      304
   30.225      294
   30.240      309
   30.255      325
   30.270      320
   30.285      308
   30.300      308
   30.315      323
   30.330      309
   30.345      295
   30.360      300
   30.375      328
   30.390      345
   30.405      326
   30.420      317
   30.435      312
   30.450      317
   30.465      297
   30.480      303
   30.495      320
   30.510      293
   30.525      289
   30.540      291
   30.555      291
   30.570      287
   30.585      292
   30.600      312
   30.615      308
   30.630      295
   30.645      302
   30.660      305
   30.675      309
   30.690      322
   30.705      333
   30.720      327
   30.735      321
   30.750      324
   30.765      326
   30.780      331
   30.795      304
   30.810      300
   30.825      323
   30.840      323
   30.855      331
   30.870      349
   30.885      344
   30.900      319
   30.915      320
   30.930      322
   30.945      325
   30.960      336
   30.975      346
   30.990      345
   31.005      314
   31.020      306
   31.035      332
   31.050      334
   31.065      335
   31.080      340
   31.095      344
   31.110      333
   31.125      322
   31.140      322
   31.155      329
   31.170      345
   31.185      356
   31.200      377
   31.215      373
   31.230      390
   31.245      420
   31.260      450
   31.275      488
   31.290      533
   31.305      609
   31.320      713
   31.335      805
   31.350      888
   31.365      940
   31.380      950
   31.395      932
   31.410      835
   31.425      725
   31.440      630
   31.455      540
   31.470      464
   31.485      404
   31.500      372
   31.515      348
   31.530      328
   31.545      324
   31.560      332
   31.575      338
   31.590      343
   31.605      340
   31.620      331
   31.635      327
   31.650      329
   31.665      322
   31.680      310
   31.695      304
   31.710      295
   31.725      292
   31.740      311
   31.755      323
   31.770      316
   31.785      324
   31.800      325
   31.815      318
   31.830      320
   31.845      319
   31.860      325
   31.875      342
   31.890      348
   31.905      352
   31.920      339
   31.935      319
   31.950      337
   31.965      353
   31.980      354
   31.995      355
   32.010      339
   32.025      324
   32.040      335
   32.055      348
   32.070      337
   32.085      327
   32.100      334
   32.115      351
   32.130      352
   32.145      344
   32.160      354
   32.175      370
   32.190      366
   32.205      360
   32.220      369
   32.235      372
   32.250      356
   32.265      344
   32.280      351
   32.295      359
   32.310      364
   32.325      358
   32.340      351
   32.355      348
   32.370      363
   32.385      370
   32.400      360
   32.415      367
   32.430      368
   32.445      357
   32.460      370
   32.475      388
   32.490      400
   32.505      427
   32.520      442
   32.535      427
   32.550      432
   32.565      450
   32.580      445
   32.595      422
   32.610      405
   32.625      389
   32.640      365
   32.655      360
   32.670      365
   32.685      340
   32.700      330
   32.715      326
   32.730      307
   32.745      311
   32.760      330
   32.775      337
   32.790      329
   32.805      320
   32.820      313
   32.835      302
   32.850      304
   32.865      316
   32.880      308
   32.895      307
   32.910      315
   32.925      303
   32.940      300
   32.955      322
   32.970      331
   32.985      325
   33.000      316
   33.015      305
   33.030      303
   33.045      314
   33.060      322
   33.075      317
   33.090      309
   33.105      316
   33.120      334
   33.135      336
   33.150      323
   33.165      327
   33.180      340
   33.195      334
   33.210      316
   33.225      314
   33.240      332
   33.255      333
   33.270      322
   33.285      319
   33.300      316
   33.315      303
   33.330      320
   33.345      341
   33.360      324
   33.375      311
   33.390      312
   33.405      324
   33.420      338
   33.435      323
   33.450      302
   33.465      299
   33.480      306
   33.495      307
   33.510      306
   33.525      306
   33.540      308
   33.555      314
   33.570      315
   33.585      322
   33.600      329
   33.615      321
   33.630      321
   33.645      318
   33.660      318
   33.675      328
   33.690      338
   33.705      345
   33.720      340
   33.735      329
   33.750      328
   33.765      324
   33.780      317
   33.795      315
   33.810      318
   33.825      324
   33.840      317
   33.855      316
   33.870      314
   33.885      298
   33.900      303
   33.915      309
   33.930      305
   33.945      310
   33.960      304
   33.975      292
   33.990      288
   34.005      294
   34.020      286
   34.035      289
   34.050      309
   34.065      313
   34.080      309
   34.095      311
   34.110      304
   34.125      299
   34.140      279
   34.155      284
   34.170      306
   34.185      315
   34.200      323
   34.215      316
   34.230      316
   34.245      314
   34.260      299
   34.275      296
   34.290      317
   34.305      326
   34.320      326
   34.335      323
   34.350      321
   34.365      346
   34.380      356
   34.395      357
   34.410      384
   34.425      421
   34.440      439
   34.455      421
   34.470      418
   34.485      414
   34.500      404
   34.515      370
   34.530      365
   34.545      363
   34.560      342
   34.575      322
   34.590      325
   34.605      312
   34.620      301
   34.635      303
   34.650      313
   34.665      309
   34.680      291
   34.695      294
   34.710      299
   34.725      301
   34.740      311
   34.755      311
   34.770      319
   34.785      322
   34.800      309
   34.815      297
   34.830      292
   34.845      286
   34.860      285
   34.875      298
   34.890      301
   34.905      284
   34.920      276
   34.935      276
   34.950      264
   34.965      268
   34.980      282
   34.995      285
   35.010      280
   35.025      281
   35.040      297
   35.055      300
   35.070      294
   35.085      284
   35.100      279
   35.115      277
   35.130      272
   35.145      276
   35.160      280
   35.175      273
   35.190      272
   35.205      289
   35.220      296
   35.235      305
   35.250      313
   35.265      306
   35.280      294
   35.295      292
   35.310      293
   35.325      284
   35.340      275
   35.355      273
   35.370      273
   35.385      281
   35.400      297
   35.415      306
   35.430      313
   35.445      321
   35.460      320
   35.475      322
   35.490      342
   35.505      374
   35.520      398
   35.535      413
   35.550      430
   35.565      422
   35.580      404
   35.595      397
   35.610      387
   35.625      371
   35.640      356
   35.655      335
   35.670      303
   35.685      273
   35.700      267
   35.715      274
   35.730      269
   35.745      272
   35.760      273
   35.775      268
   35.790      280
   35.805      280
   35.820      263
   35.835      254
   35.850      257
   35.865      264
   35.880      267
   35.895      270
   35.910      264
   35.925      248
   35.940      248
   35.955      253
   35.970      261
   35.985      280
   36.000      266
   36.015      250
   36.030      255
   36.045      257
   36.060      253
   36.075      260
   36.090      261
   36.105      250
   36.120      252
   36.135      276
   36.150      276
   36.165      255
   36.180      255
   36.195      251
   36.210      251
   36.225      262
   36.240      264
   36.255      265
   36.270      267
   36.285      258
   36.300      253
   36.315      255
   36.330      251
   36.345      265
   36.360      280
   36.375      260
   36.390      245
   36.405      247
   36.420      251
   36.435      263
   36.450      270
   36.465      278
   36.480      268
   36.495      247
   36.510      256
   36.525      271
   36.540      277
   36.555      263
   36.570      237
   36.585      228
