    0.000        6
    0.015        8
    0.030        8
    0.045        6
    0.060        5
    0.075        8
    0.090        6
    0.105        5
    0.120        8
    0.135        4
    0.150        7
    0.165        3
    0.180        5
    0.195        3
    0.210        6
    0.225       10
    0.240        9
    0.255        8
    0.270        7
    0.285        5
    0.300        8
    0.315       11
    0.330       14
    0.345       12
    0.360        6
    0.375        7
    0.390        7
    0.405        8
    0.420        7
    0.435        5
    0.450        9
    0.465        8
    0.480        6
    0.495        6
    0.510        7
    0.525        6
    0.540        6
    0.555        7
    0.570        7
    0.585        7
    0.600        7
    0.615        7
    0.630        7
    0.645        6
    0.660        7
    0.675        9
    0.690        7
    0.705        6
    0.720        7
    0.735        7
    0.750        6
    0.765        5
    0.780        5
    0.795       10
    0.810        8
    0.825        7
    0.840        9
    0.855        6
    0.870        5
    0.885        6
    0.900        7
    0.915        6
    0.930        3
    0.945        5
    0.960        7
    0.975        7
    0.990        8
    1.005       10
    1.020       12
    1.035        7
    1.050        7
    1.065       10
    1.080       12
    1.095       16
    1.110       17
    1.125       17
    1.140       19
    1.155       21
    1.170       22
    1.185       36
    1.200       41
    1.215       39
    1.230       46
    1.245       56
    1.260       55
    1.275       45
    1.290       57
    1.305       58
    1.320       63
    1.335       58
    1.350       63
    1.365       74
    1.380       71
    1.395       72
    1.410       79
    1.425       53
    1.440       80
    1.455       73
    1.470       93
    1.485       98
    1.500       75
    1.515       95
    1.530       93
    1.545       88
    1.560      109
    1.575      107
    1.590       99
    1.605      101
    1.620       98
    1.635      105
    1.650      101
    1.665      103
    1.680      105
    1.695      104
    1.710      115
    1.725      102
    1.740       96
    1.755      102
    1.770      120
    1.785      144
    1.800      133
    1.815      132
    1.830      131
    1.845      124
    1.860      116
    1.875      124
    1.890      119
    1.905      135
    1.920      148
    1.935      135
    1.950      136
    1.965      134
    1.980      138
    1.995      157
    2.010      163
    2.025      167
    2.040      192
    2.055      205
    2.070      189
    2.085      192
    2.100      214
    2.115      212
    2.130      234
    2.145      249
    2.160      232
    2.175      220
    2.190      216
    2.205      234
    2.220      237
    2.235      233
    2.250      240
    2.265      255
    2.280      273
    2.295      266
    2.310      238
    2.325      237
    2.340      245
    2.355      256
    2.370      247
    2.385      238
    2.400      277
    2.415      259
    2.430      250
    2.445      247
    2.460      253
    2.475      271
    2.490      262
    2.505      256
    2.520      250
    2.535      262
    2.550      256
    2.565      256
    2.580      255
    2.595      274
    2.610      280
    2.625      288
    2.640      273
    2.655      246
    2.670      286
    2.685      300
    2.700      280
    2.715      286
    2.730      303
    2.745      306
    2.760      274
    2.775      279
    2.790      282
    2.805      314
    2.820      325
    2.835      316
    2.850      304
    2.865      304
    2.880      322
    2.895      329
    2.910      341
    2.925      318
    2.940      325
    2.955      329
    2.970      342
    2.985      359
    3.000      356
    3.015      344
    3.030      348
    3.045      365
    3.060      358
    3.075      372
    3.090      380
    3.105      371
    3.120      355
    3.135      361
    3.150      402
    3.165      426
    3.180      398
    3.195      413
    3.210      371
    3.225      416
    3.240      402
    3.255      430
    3.270      419
    3.285      414
    3.300      441
    3.315      453
    3.330      448
    3.345      449
    3.360      486
    3.375      477
    3.390      487
    3.405      497
    3.420      471
    3.435      488
    3.450      522
    3.465      567
    3.480      572
    3.495      552
    3.510      601
    3.525      614
    3.540      584
    3.555      640
    3.570      646
    3.585      662
    3.600      602
    3.615      489
    3.630      545
    3.645      577
    3.660      550
    3.675      543
    3.690      553
    3.705      631
    3.720      612
    3.735      579
    3.750      591
    3.765      632
    3.780      606
    3.795      636
    3.810      691
    3.825      683
    3.840      717
    3.855      726
    3.870      761
    3.885      768
    3.900      719
    3.915      705
    3.930      643
    3.945      605
    3.960      586
    3.975      588
    3.990      597
    4.005      573
    4.020      578
    4.035      569
    4.050      550
    4.065      561
    4.080      620
    4.095      569
    4.110      614
    4.125      672
    4.140      663
    4.155      675
    4.170      681
    4.185      698
    4.200      720
    4.215      742
    4.230      737
    4.245      783
    4.260      748
    4.275      755
    4.290      872
    4.305      885
    4.320      898
    4.335      874
    4.350      828
    4.365      850
    4.380      752
    4.395      792
    4.410      735
    4.425      663
    4.440      653
    4.455      622
    4.470      646
    4.485      604
    4.500      667
    4.515      677
    4.530      657
    4.545      643
    4.560      632
    4.575      707
    4.590      699
    4.605      701
    4.620      685
    4.635      697
    4.650      736
    4.665      725
    4.680      752
    4.695      808
    4.710      755
    4.725      856
    4.740      791
    4.755      865
    4.770      854
    4.785      850
    4.800      916
    4.815      922
    4.830      991
    4.845      942
    4.860      951
    4.875      845
    4.890      802
    4.905      791
    4.920      749
    4.935      648
    4.950      697
    4.965      719
    4.980      628
    4.995      686
    5.010      751
    5.025      693
    5.040      694
    5.055      699
    5.070      693
    5.085      684
    5.100      751
    5.115      750
    5.130      796
    5.145      762
    5.160      799
    5.175      809
    5.190      802
    5.205      813
    5.220      820
    5.235      854
    5.250      846
    5.265      888
    5.280      945
    5.295      946
    5.310     1017
    5.325     1031
    5.340     1050
    5.355     1046
    5.370     1022
    5.385     1032
    5.400      937
    5.415      940
    5.430      875
    5.445      805
    5.460      760
    5.475      739
    5.490      693
    5.505      656
    5.520      664
    5.535      648
    5.550      640
    5.565      649
    5.580      645
    5.595      624
    5.610      613
    5.625      639
    5.640      629
    5.655      671
    5.670      680
    5.685      670
    5.700      646
    5.715      697
    5.730      711
    5.745      722
    5.760      717
    5.775      718
    5.790      724
    5.805      736
    5.820      759
    5.835      698
    5.850      690
    5.865      675
    5.880      605
    5.895      575
    5.910      582
    5.925      568
    5.940      598
    5.955      592
    5.970      577
    5.985      555
    6.000      577
    6.015      590
    6.030      550
    6.045      559
    6.060      584
    6.075      573
    6.090      588
    6.105      614
    6.120      578
    6.135      603
    6.150      624
    6.165      618
    6.180      616
    6.195      603
    6.210      620
    6.225      634
    6.240      619
    6.255      627
    6.270      630
    6.285      614
    6.300      613
    6.315      595
    6.330      588
    6.345      589
    6.360      584
    6.375      604
    6.390      603
    6.405      601
    6.420      627
    6.435      652
    6.450      668
    6.465      666
    6.480      675
    6.495      685
    6.510      702
    6.525      735
    6.540      716
    6.555      687
    6.570      658
    6.585      633
    6.600      619
    6.615      602
    6.630      618
    6.645      583
    6.660      567
    6.675      573
    6.690      571
    6.705      580
    6.720      613
    6.735      596
    6.750      552
    6.765      552
    6.780      596
    6.795      596
    6.810      578
    6.825      622
    6.840      621
    6.855      610
    6.870      611
    6.885      632
    6.900      648
    6.915      642
    6.930      685
    6.945      657
    6.960      695
    6.975      730
    6.990      751
    7.005      768
    7.020      732
    7.035      778
    7.050      833
    7.065      792
    7.080      783
    7.095      838
    7.110      841
    7.125      801
    7.140      762
    7.155      754
    7.170      681
    7.185      661
    7.200      629
    7.215      620
    7.230      647
    7.245      598
    7.260      594
    7.275      593
    7.290      614
    7.305      633
    7.320      629
    7.335      616
    7.350      641
    7.365      632
    7.380      678
    7.395      708
    7.410      697
    7.425      644
    7.440      613
    7.455      651
    7.470      681
    7.485      629
    7.500      628
    7.515      760
    7.530      702
    7.545      729
    7.560      711
    7.575      709
    7.590      795
    7.605      770
    7.620      854
    7.635      831
    7.650      931
    7.665      864
    7.680      881
    7.695      921
    7.710      997
    7.725     1028
    7.740     1047
    7.755     1039
    7.770     1082
    7.785     1039
    7.800     1019
    7.815     1062
    7.830     1096
    7.845     1091
    7.860     1125
    7.875     1044
    7.890     1033
    7.905      997
    7.920     1007
    7.935     1028
    7.950     1010
    7.965     1018
    7.980     1043
    7.995     1016
    8.010      992
    8.025      994
    8.040      950
    8.055      929
    8.070      924
    8.085      805
    8.100      823
    8.115      805
    8.130      871
    8.145      911
    8.160      930
    8.175      948
    8.190      930
    8.205      969
    8.220     1030
    8.235     1072
    8.250     1065
    8.265     1139
    8.280     1234
    8.295     1343
    8.310     1400
    8.325     1466
    8.340     1563
    8.355     1681
    8.370     1852
    8.385     2071
    8.400     2218
    8.415     2301
    8.430     2493
    8.445     2842
    8.460     3121
    8.475     3292
    8.490     3158
    8.505     2713
    8.520     2281
    8.535     1836
    8.550     1438
    8.565     1267
    8.580     1184
    8.595     1141
    8.610     1116
    8.625     1062
    8.640     1032
    8.655     1012
    8.670      986
    8.685      986
    8.700     1069
    8.715     1059
    8.730      944
    8.745      894
    8.760      882
    8.775      857
    8.790      801
    8.805      767
    8.820      734
    8.835      712
    8.850      689
    8.865      674
    8.880      701
    8.895      723
    8.910      742
    8.925      713
    8.940      675
    8.955      740
    8.970      789
    8.985      787
    9.000      806
    9.015      820
    9.030      834
    9.045      867
    9.060      868
    9.075      870
    9.090      918
    9.105      972
    9.120     1059
    9.135     1036
    9.150     1061
    9.165     1084
    9.180     1159
    9.195     1135
    9.210     1155
    9.225     1141
    9.240     1054
    9.255     1034
    9.270     1016
    9.285      907
    9.300      780
    9.315      782
    9.330      763
    9.345      783
    9.360      701
    9.375      690
    9.390      759
    9.405      668
    9.420      773
    9.435      720
    9.450      714
    9.465      748
    9.480      793
    9.495      791
    9.510      830
    9.525      795
    9.540      815
    9.555      849
    9.570      828
    9.585      831
    9.600      830
    9.615      835
    9.630      846
    9.645      801
    9.660      839
    9.675      823
    9.690      893
    9.705      846
    9.720      899
    9.735      814
    9.750      884
    9.765      837
    9.780      795
    9.795      835
    9.810      822
    9.825      736
    9.840      713
    9.855      694
    9.870      673
    9.885      620
    9.900      583
    9.915      644
    9.930      645
    9.945      664
    9.960      671
    9.975      666
    9.990      646
   10.005      603
   10.020      660
   10.035      673
   10.050      662
   10.065      647
   10.080      646
   10.095      658
   10.110      643
   10.125      662
   10.140      692
   10.155      686
   10.170      681
   10.185      664
   10.200      659
   10.215      697
   10.230      701
   10.245      674
   10.260      676
   10.275      630
   10.290      652
   10.305      662
   10.320      664
   10.335      714
   10.350      700
   10.365      697
   10.380      751
   10.395      788
   10.410      782
   10.425      764
   10.440      762
   10.455      773
   10.470      773
   10.485      790
   10.500      822
   10.515      837
   10.530      859
   10.545      858
   10.560      860
   10.575      899
   10.590      986
   10.605     1055
   10.620     1028
   10.635      991
   10.650     1010
   10.665     1084
   10.680     1143
   10.695     1169
   10.710     1262
   10.725     1322
   10.740     1331
   10.755     1370
   10.770     1396
   10.785     1460
   10.800     1531
   10.815     1571
   10.830     1639
   10.845     1714
   10.860     1700
   10.875     1597
   10.890     1516
   10.905     1487
   10.920     1467
   10.935     1389
   10.950     1330
   10.965     1290
   10.980     1325
   10.995     1349
   11.010     1373
   11.025     1407
   11.040     1411
   11.055     1430
   11.070     1502
   11.085     1578
   11.100     1581
   11.115     1625
   11.130     1709
   11.145     1705
   11.160     1700
   11.175     1650
   11.190     1593
   11.205     1573
   11.220     1461
   11.235     1288
   11.250     1143
   11.265     1043
   11.280      986
   11.295      925
   11.310      875
   11.325      885
   11.340      845
   11.355      782
   11.370      775
   11.385      754
   11.400      755
   11.415      731
   11.430      752
   11.445      786
   11.460      779
   11.475      789
   11.490      807
   11.505      747
   11.520      734
   11.535      770
   11.550      794
   11.565      827
   11.580      811
   11.595      800
   11.610      804
   11.625      831
   11.640      846
   11.655      800
   11.670      891
   11.685      788
   11.700      770
   11.715      769
   11.730      832
   11.745      791
   11.760      748
   11.775      748
   11.790      740
   11.805      723
   11.820      677
   11.835      758
   11.850      723
   11.865      685
   11.880      698
   11.895      721
   11.910      745
   11.925      744
   11.940      672
   11.955      694
   11.970      626
   11.985      679
   12.000      722
   12.015      691
   12.030      678
   12.045      634
   12.060      595
   12.075      651
   12.090      634
   12.105      608
   12.120      600
   12.135      592
   12.150      560
   12.165      573
   12.180      600
   12.195      515
   12.210      540
   12.225      564
   12.240      555
   12.255      544
   12.270      529
   12.285      485
   12.300      553
   12.315      549
   12.330      560
   12.345      550
   12.360      535
   12.375      526
   12.390      512
   12.405      540
   12.420      525
   12.435      529
   12.450      515
   12.465      516
   12.480      512
   12.495      494
   12.510      469
   12.525      504
   12.540      513
   12.555      535
   12.570      503
   12.585      488
   12.600      516
   12.615      471
   12.630      473
   12.645      471
   12.660      509
   12.675      489
   12.690      496
   12.705      531
   12.720      558
   12.735      579
   12.750      556
   12.765      605
   12.780      604
   12.795      648
   12.810      656
   12.825      616
   12.840      630
   12.855      644
   12.870      685
   12.885      686
   12.900      688
   12.915      661
   12.930      615
   12.945      607
   12.960      627
   12.975      638
   12.990      596
   13.005      629
   13.020      586
   13.035      637
   13.050      625
   13.065      675
   13.080      707
   13.095      653
   13.110      649
   13.125      629
   13.140      644
   13.155      610
   13.170      622
   13.185      619
   13.200      621
   13.215      598
   13.230      610
   13.245      606
   13.260      588
   13.275      587
   13.290      536
   13.305      543
   13.320      518
   13.335      551
   13.350      545
   13.365      528
   13.380      521
   13.395      537
   13.410      529
   13.425      514
   13.440      527
   13.455      519
   13.470      491
   13.485      506
   13.500      524
   13.515      575
   13.530      538
   13.545      520
   13.560      536
   13.575      565
   13.590      583
   13.605      631
   13.620      677
   13.635      732
   13.650      793
   13.665      886
   13.680     1019
   13.695     1088
   13.710     1208
   13.725     1340
   13.740     1597
   13.755     1831
   13.770     2047
   13.785     2396
   13.800     2920
   13.815     3262
   13.830     3833
   13.845     4516
   13.860     4929
   13.875     5009
   13.890     4700
   13.905     4156
   13.920     3290
   13.935     2398
   13.950     1750
   13.965     1283
   13.980      985
   13.995      837
   14.010      734
   14.025      668
   14.040      616
   14.055      612
   14.070      571
   14.085      521
   14.100      523
   14.115      538
   14.130      495
   14.145      511
   14.160      500
   14.175      531
   14.190      523
   14.205      476
   14.220      477
   14.235      499
   14.250      463
   14.265      476
   14.280      478
   14.295      492
   14.310      472
   14.325      465
   14.340      476
   14.355      494
   14.370      451
   14.385      483
   14.400      459
   14.415      469
   14.430      488
   14.445      503
   14.460      520
   14.475      491
   14.490      511
   14.505      539
   14.520      548
   14.535      595
   14.550      598
   14.565      603
   14.580      640
   14.595      633
   14.610      629
   14.625      616
   14.640      590
   14.655      538
   14.670      532
   14.685      522
   14.700      509
   14.715      483
   14.730      449
   14.745      449
   14.760      458
   14.775      452
   14.790      461
   14.805      435
   14.820      432
   14.835      431
   14.850      404
   14.865      399
   14.880      377
   14.895      394
   14.910      405
   14.925      418
   14.940      432
   14.955      414
   14.970      410
   14.985      413
   15.000      414
   15.015      403
   15.030      407
   15.045      374
   15.060      378
   15.075      372
   15.090      374
   15.105      382
   15.120      368
   15.135      375
   15.150      365
   15.165      366
   15.180      365
   15.195      367
   15.210      388
   15.225      399
   15.240      379
   15.255      375
   15.270      356
   15.285      392
   15.300      399
   15.315      404
   15.330      384
   15.345      410
   15.360      407
   15.375      420
   15.390      412
   15.405      427
   15.420      417
   15.435      423
   15.450      391
   15.465      372
   15.480      408
   15.495      427
   15.510      428
   15.525      425
   15.540      374
   15.555      432
   15.570      408
   15.585      428
   15.600      411
   15.615      358
   15.630      423
   15.645      432
   15.660      402
   15.675      379
   15.690      454
   15.705      451
   15.720      441
   15.735      479
   15.750      415
   15.765      436
   15.780      479
   15.795      380
   15.810      476
   15.825      457
   15.840      459
   15.855      472
   15.870      476
   15.885      477
   15.900      472
   15.915      519
   15.930      489
   15.945      479
   15.960      451
   15.975      409
   15.990      449
   16.005      436
   16.020      392
   16.035      444
   16.050      371
   16.065      389
   16.080      379
   16.095      464
   16.110      459
   16.125      478
   16.140      523
   16.155      545
   16.170      614
   16.185      617
   16.200      736
   16.215      800
   16.230      850
   16.245     1032
   16.260     1074
   16.275     1138
   16.290     1240
   16.305     1143
   16.320     1065
   16.335      862
   16.350      726
   16.365      611
   16.380      500
   16.395      468
   16.410      418
   16.425      422
   16.440      424
   16.455      398
   16.470      389
   16.485      367
   16.500      397
   16.515      415
   16.530      378
   16.545      376
   16.560      390
   16.575      365
   16.590      380
   16.605      380
   16.620      391
   16.635      371
   16.650      366
   16.665      359
   16.680      370
   16.695      400
   16.710      413
   16.725      403
   16.740      399
   16.755      393
   16.770      392
   16.785      417
   16.800      417
   16.815      403
   16.830      378
   16.845      382
   16.860      379
   16.875      360
   16.890      388
   16.905      391
   16.920      383
   16.935      394
   16.950      395
   16.965      419
   16.980      421
   16.995      414
   17.010      452
   17.025      458
   17.040      429
   17.055      443
   17.070      430
   17.085      409
   17.100      404
   17.115      399
   17.130      404
   17.145      364
   17.160      375
   17.175      401
   17.190      392
   17.205      377
   17.220      402
   17.235      385
   17.250      392
   17.265      393
   17.280      386
   17.295      382
   17.310      391
   17.325      414
   17.340      412
   17.355      401
   17.370      365
   17.385      393
   17.400      410
   17.415      371
   17.430      377
   17.445      412
   17.460      412
   17.475      375
   17.490      415
   17.505      365
   17.520      406
   17.535      431
   17.550      417
   17.565      413
   17.580      397
   17.595      420
   17.610      402
   17.625      394
   17.640      398
   17.655      416
   17.670      448
   17.685      459
   17.700      479
   17.715      467
   17.730      464
   17.745      450
   17.760      443
   17.775      465
   17.790      460
   17.805      452
   17.820      422
   17.835      414
   17.850      463
   17.865      455
   17.880      435
   17.895      452
   17.910      455
   17.925      465
   17.940      447
   17.955      446
   17.970      472
   17.985      482
   18.000      454
   18.015      457
   18.030      457
   18.045      440
   18.060      453
   18.075      474
   18.090      470
   18.105      462
   18.120      491
   18.135      502
   18.150      495
   18.165      517
   18.180      542
   18.195      548
   18.210      571
   18.225      572
   18.240      612
   18.255      623
   18.270      618
   18.285      696
   18.300      737
   18.315      751
   18.330      737
   18.345      805
   18.360      821
   18.375      811
   18.390      829
   18.405      875
   18.420      897
   18.435      900
   18.450      986
   18.465      930
   18.480      959
   18.495      912
   18.510      992
   18.525      970
   18.540     1016
   18.555      988
   18.570     1025
   18.585      922
   18.600      917
   18.615      889
   18.630      861
   18.645      853
   18.660      843
   18.675      802
   18.690      743
   18.705      717
   18.720      709
   18.735      683
   18.750      664
   18.765      637
   18.780      618
   18.795      636
   18.810      651
   18.825      645
   18.840      646
   18.855      662
   18.870      626
   18.885      605
   18.900      615
   18.915      623
   18.930      619
   18.945      606
   18.960      603
   18.975      596
   18.990      593
   19.005      582
   19.020      571
   19.035      573
   19.050      574
   19.065      577
   19.080      596
   19.095      603
   19.110      580
   19.125      562
   19.140      608
   19.155      620
   19.170      615
   19.185      618
   19.200      583
   19.215      569
   19.230      581
   19.245      591
   19.260      586
   19.275      576
   19.290      585
   19.305      572
   19.320      569
   19.335      590
   19.350      608
   19.365      605
   19.380      606
   19.395      632
   19.410      646
   19.425      629
   19.440      607
   19.455      604
   19.470      604
   19.485      604
   19.500      615
   19.515      619
   19.530      632
   19.545      667
   19.560      690
   19.575      717
   19.590      765
   19.605      814
   19.620      875
   19.635      952
   19.650     1032
   19.665     1131
   19.680     1198
   19.695     1200
   19.710     1183
   19.725     1130
   19.740     1044
   19.755      940
   19.770      804
   19.785      685
   19.800      630
   19.815      608
   19.830      596
   19.845      574
   19.860      548
   19.875      545
   19.890      541
   19.905      538
   19.920      562
   19.935      576
   19.950      566
   19.965      550
   19.980      536
   19.995      553
   20.010      575
   20.025      578
   20.040      568
   20.055      563
   20.070      583
   20.085      587
   20.100      572
   20.115      565
   20.130      560
   20.145      558
   20.160      551
   20.175      562
   20.190      594
   20.205      585
   20.220      568
   20.235      552
   20.250      548
   20.265      547
   20.280      540
   20.295      558
   20.310      570
   20.325      548
   20.340      562
   20.355      570
   20.370      545
   20.385      529
   20.400      522
   20.415      538
   20.430      518
   20.445      508
   20.460      540
   20.475      549
   20.490      516
   20.505      521
   20.520      531
   20.535      518
   20.550      507
   20.565      494
   20.580      522
   20.595      539
   20.610      542
   20.625      549
   20.640      561
   20.655      537
   20.670      528
   20.685      540
   20.700      521
   20.715      529
   20.730      523
   20.745      522
   20.760      527
   20.775      513
   20.790      499
   20.805      497
   20.820      529
   20.835      534
   20.850      529
   20.865      529
   20.880      531
   20.895      533
   20.910      513
   20.925      511
   20.940      530
   20.955      526
   20.970      498
   20.985      491
   21.000      494
   21.015      504
   21.030      514
   21.045      503
   21.060      493
   21.075      517
   21.090      538
   21.105      520
   21.120      505
   21.135      527
   21.150      526
   21.165      512
   21.180      510
   21.195      501
   21.210      510
   21.225      537
   21.240      538
   21.255      552
   21.270      558
   21.285      570
   21.300      592
   21.315      588
   21.330      588
   21.345      611
   21.360      664
   21.375      678
   21.390      691
   21.405      766
   21.420      808
   21.435      839
   21.450      878
   21.465      888
   21.480      916
   21.495      951
   21.510      946
   21.525      899
   21.540      803
   21.555      708
   21.570      647
   21.585      623
   21.600      607
   21.615      569
   21.630      551
   21.645      568
   21.660      562
   21.675      536
   21.690      541
   21.705      546
   21.720      540
   21.735      537
   21.750      535
   21.765      541
   21.780      550
   21.795      525
   21.810      501
   21.825      509
   21.840      522
   21.855      534
   21.870      520
   21.885      518
   21.900      525
   21.915      517
   21.930      506
   21.945      497
   21.960      511
   21.975      541
   21.990      553
   22.005      538
   22.020      538
   22.035      580
   22.050      590
   22.065      552
   22.080      539
   22.095      522
   22.110      501
   22.125      506
   22.140      495
   22.155      476
   22.170      477
   22.185      487
   22.200      492
   22.215      488
   22.230      472
   22.245      457
   22.260      457
   22.275      460
   22.290      467
   22.305      469
   22.320      469
   22.335      475
   22.350      479
   22.365      476
   22.380      477
   22.395      488
   22.410      471
   22.425      456
   22.440      464
   22.455      456
   22.470      444
   22.485      460
   22.500      468
   22.515      459
   22.530      454
   22.545      455
   22.560      462
   22.575      466
   22.590      465
   22.605      452
   22.620      436
   22.635      441
   22.650      436
   22.665      423
   22.680      431
   22.695      434
   22.710      421
   22.725      415
   22.740      417
   22.755      430
   22.770      428
   22.785      410
   22.800      420
   22.815      448
   22.830      445
   22.845      428
   22.860      436
   22.875      439
   22.890      431
   22.905      426
   22.920      425
   22.935      414
   22.950      410
   22.965      417
   22.980      424
   22.995      425
   23.010      411
   23.025      396
   23.040      390
   23.055      385
   23.070      383
   23.085      411
   23.100      424
   23.115      406
   23.130      402
   23.145      405
   23.160      400
   23.175      400
   23.190      401
   23.205      386
   23.220      383
   23.235      388
   23.250      387
   23.265      384
   23.280      372
   23.295      377
   23.310      379
   23.325      375
   23.340      380
   23.355      392
   23.370      401
   23.385      399
   23.400      384
   23.415      384
   23.430      403
   23.445      400
   23.460      394
   23.475      402
   23.490      407
   23.505      402
   23.520      404
   23.535      399
   23.550      390
   23.565      393
   23.580      396
   23.595      394
   23.610      385
   23.625      381
   23.640      401
   23.655      423
   23.670      429
   23.685      422
   23.700      401
   23.715      379
   23.730      374
   23.745      379
   23.760      401
   23.775      407
   23.790      382
   23.805      378
   23.820      386
   23.835      397
   23.850      418
   23.865      403
   23.880      403
   23.895      418
   23.910      426
   23.925      442
   23.940      437
   23.955      427
   23.970      429
   23.985      444
   24.000      444
   24.015      460
   24.030      503
   24.045      575
   24.060      652
   24.075      754
   24.090      874
   24.105      974
   24.120     1085
   24.135     1181
   24.150     1347
   24.165     1523
   24.180     1641
   24.195     1683
   24.210     1578
   24.225     1417
   24.240     1178
   24.255      936
   24.270      766
   24.285      641
   24.300      560
   24.315      519
   24.330      488
   24.345      451
   24.360      443
   24.375      448
   24.390      440
   24.405      435
   24.420      430
   24.435      390
   24.450      373
   24.465      382
   24.480      374
   24.495      363
   24.510      354
   24.525      349
   24.540      360
   24.555      359
   24.570      369
   24.585      367
   24.600      360
   24.615      374
   24.630      388
   24.645      377
   24.660      369
   24.675      375
   24.690      368
   24.705      360
   24.720      383
   24.735      401
   24.750      385
   24.765      382
   24.780      383
   24.795      383
   24.810      388
   24.825      385
   24.840      377
   24.855      379
   24.870      383
   24.885      364
   24.900      345
   24.915      351
   24.930      360
   24.945      367
   24.960      359
   24.975      342
   24.990      345
   25.005      357
   25.020      360
   25.035      356
   25.050      356
   25.065      354
   25.080      359
   25.095      360
   25.110      339
   25.125      329
   25.140      332
   25.155      343
   25.170      357
   25.185      365
   25.200      360
   25.215      336
   25.230      320
   25.245      328
   25.260      350
   25.275      345
   25.290      331
   25.305      335
   25.320      336
   25.335      342
   25.350      346
   25.365      351
   25.380      355
   25.395      350
   25.410      347
   25.425      341
   25.440      346
   25.455      365
   25.470      379
   25.485      389
   25.500      394
   25.515      388
   25.530      385
   25.545      394
   25.560      406
   25.575      406
   25.590      421
   25.605      460
   25.620      489
   25.635      521
   25.650      560
   25.665      572
   25.680      565
   25.695      570
   25.710      566
   25.725      525
   25.740      464
   25.755      427
   25.770      401
   25.785      379
   25.800      364
   25.815      346
   25.830      352
   25.845      361
   25.860      358
   25.875      353
   25.890      343
   25.905      344
   25.920      348
   25.935      342
   25.950      337
   25.965      344
   25.980      343
   25.995      338
   26.010      340
   26.025      344
   26.040      341
   26.055      340
   26.070      338
   26.085      329
   26.100      332
   26.115      326
   26.130      320
   26.145      317
   26.160      312
   26.175      300
   26.190      298
   26.205      312
   26.220      326
   26.235      330
   26.250      328
   26.265      329
   26.280      326
   26.295      308
   26.310      306
   26.325      312
   26.340      316
   26.355      319
   26.370      324
   26.385      318
   26.400      315
   26.415      329
   26.430      322
   26.445      299
   26.460      308
   26.475      327
   26.490      315
   26.505      317
   26.520      327
   26.535      323
   26.550      329
   26.565      340
   26.580      325
   26.595      296
   26.610      300
   26.625      307
   26.640      305
   26.655      304
   26.670      309
   26.685      315
   26.700      294
   26.715      297
   26.730      313
   26.745      301
   26.760      289
   26.775      299
   26.790      312
   26.805      312
   26.820      291
   26.835      270
   26.850      285
   26.865      305
   26.880      318
   26.895      317
   26.910      292
   26.925      273
   26.940      274
   26.955      280
   26.970      282
   26.985      299
   27.000      320
   27.015      334
   27.030      325
   27.045      290
   27.060      285
   27.075      310
   27.090      317
   27.105      306
   27.120      306
   27.135      332
   27.150      322
   27.165      288
   27.180      295
   27.195      311
   27.210      310
   27.225      297
   27.240      288
   27.255      303
   27.270      316
   27.285      319
   27.300      317
   27.315      324
   27.330      321
   27.345      319
   27.360      322
   27.375      309
   27.390      305
   27.405      312
   27.420      313
   27.435      306
   27.450      305
   27.465      308
   27.480      308
   27.495      310
   27.510      312
   27.525      312
   27.540      313
   27.555      316
   27.570      317
   27.585      310
   27.600      306
   27.615      307
   27.630      309
   27.645      314
   27.660      305
   27.675      305
   27.690      316
   27.705      305
   27.720      290
   27.735      290
   27.750      303
   27.765      316
   27.780      322
   27.795      332
   27.810      340
   27.825      338
   27.840      345
   27.855      360
   27.870      384
   27.885      420
   27.900      426
   27.915      438
   27.930      488
   27.945      539
   27.960      600
   27.975      639
   27.990      626
   28.005      609
   28.020      603
   28.035      583
   28.050      524
   28.065      458
   28.080      412
   28.095      383
   28.110      348
   28.125      341
   28.140      350
   28.155      330
   28.170      335
   28.185      363
   28.200      351
   28.215      324
   28.230      304
   28.245      290
   28.260      294
   28.275      305
   28.290      305
   28.305      310
   28.320      321
   28.335      320
   28.350      303
   28.365      305
   28.380      334
   28.395      365
   28.410      361
   28.425      352
   28.440      348
   28.455      342
   28.470      354
   28.485      367
   28.500      366
   28.515      355
   28.530      356
   28.545      368
   28.560      369
   28.575      337
   28.590      343
   28.605      339
   28.620      315
   28.635      323
   28.650      347
   28.665      357
   28.680      361
   28.695      363
   28.710      358
   28.725      349
   28.740      328
   28.755      328
   28.770      331
   28.785      322
   28.800      330
   28.815      330
   28.830      315
   28.845      327
   28.860      338
   28.875      320
   28.890      317
   28.905      329
   28.920      323
   28.935      324
   28.950      328
   28.965      334
   28.980      348
   28.995      337
   29.010      327
   29.025      339
   29.040      342
   29.055      334
   29.070      341
   29.085      344
   29.100      339
   29.115      332
   29.130      329
   29.145      335
   29.160      331
   29.175      339
   29.190      367
   29.205      383
   29.220      396
   29.235      421
   29.250      443
   29.265      460
   29.280      489
   29.295      537
   29.310      561
   29.325      539
   29.340      509
   29.355      491
   29.370      455
   29.385      410
   29.400      388
   29.415      381
   29.430      375
   29.445      364
   29.460      351
   29.475      340
   29.490      327
   29.505      325
   29.520      336
   29.535      342
   29.550      342
   29.565      330
   29.580      309
   29.595      308
   29.610      313
   29.625      315
   29.640      325
   29.655      330
   29.670      339
   29.685      334
   29.700      322
   29.715      323
   29.730      330
   29.745      333
   29.760      319
   29.775      310
   29.790      310
   29.805      317
   29.820      320
   29.835      325
   29.850      320
   29.865      309
   29.880      313
   29.895      321
   29.910      312
   29.925      300
   29.940      316
   29.955      334
   29.970      334
   29.985      310
   30.000      298
   30.015      298
   30.030      309
   30.045      337
   30.060      347
   30.075      356
   30.090      344
   30.105      331
   30.120      317
   30.135      322
   30.150      344
   30.165      331
   30.180      305
   30.195      312
   30.210      311
   30.225      292
   30.240      312
   30.255      320
   30.270      313
   30.285      332
   30.300      335
   30.315      316
   30.330      317
   30.345      319
   30.360      316
   30.375      314
   30.390      314
   30.405      301
   30.420      310
   30.435      337
   30.450      335
   30.465      329
   30.480      325
   30.495      320
   30.510      310
   30.525      321
   30.540      335
   30.555      337
   30.570      310
   30.585      287
   30.600      330
   30.615      350
   30.630      320
   30.645      295
   30.660      313
   30.675      326
   30.690      333
   30.705      330
   30.720      312
   30.735      331
   30.750      342
   30.765      311
   30.780      299
   30.795      319
   30.810      328
   30.825      319
   30.840      314
   30.855      325
   30.870      335
   30.885      328
   30.900      330
   30.915      322
   30.930      316
   30.945      326
   30.960      326
   30.975      316
   30.990      309
   31.005      329
   31.020      346
   31.035      327
   31.050      322
   31.065      329
   31.080      340
   31.095      341
   31.110      346
   31.125      357
   31.140      334
   31.155      319
   31.170      335
   31.185      342
   31.200      359
   31.215      380
   31.230      381
   31.245      392
   31.260      415
   31.275      438
   31.290      475
   31.305      511
   31.320      540
   31.335      568
   31.350      589
   31.365      620
   31.380      670
   31.395      709
   31.410      675
   31.425      606
   31.440      566
   31.455      515
   31.470      476
   31.485      439
   31.500      392
   31.515      383
   31.530      369
   31.545      355
   31.560      359
   31.575      365
   31.590      351
   31.605      344
   31.620      339
   31.635      330
   31.650      337
   31.665      331
   31.680      320
   31.695      310
   31.710      306
   31.725      310
   31.740      313
   31.755      324
   31.770      335
   31.785      329
   31.800      321
   31.815      327
   31.830      336
   31.845      324
   31.860      320
   31.875      338
   31.890      339
   31.905      323
   31.920      335
   31.935      354
   31.950      351
   31.965      355
   31.980      346
   31.995      344
   32.010      355
   32.025      341
   32.040      321
   32.055      326
   32.070      345
   32.085      350
   32.100      337
   32.115      317
   32.130      326
   32.145      340
   32.160      327
   32.175      327
   32.190      345
   32.205      346
   32.220      339
   32.235      345
   32.250      331
   32.265      319
   32.280      338
   32.295      348
   32.310      349
   32.325      351
   32.340      340
   32.355      329
   32.370      332
   32.385      343
   32.400      354
   32.415      361
   32.430      364
   32.445      363
   32.460      370
   32.475      368
   32.490      371
   32.505      379
   32.520      372
   32.535      385
   32.550      410
   32.565      404
   32.580      392
   32.595      374
   32.610      356
   32.625      372
   32.640      381
   32.655      375
   32.670      365
   32.685      339
   32.700      327
   32.715      323
   32.730      316
   32.745      311
   32.760      309
   32.775      320
   32.790      332
   32.805      328
   32.820      321
   32.835      335
   32.850      344
   32.865      325
   32.880      316
   32.895      320
   32.910      327
   32.925      330
   32.940      327
   32.955      325
   32.970      332
   32.985      333
   33.000      328
   33.015      333
   33.030      343
   33.045      342
   33.060      332
   33.075      326
   33.090      331
   33.105      317
   33.120      296
   33.135      304
   33.150      318
   33.165      322
   33.180      335
   33.195      337
   33.210      327
   33.225      311
   33.240      304
   33.255      317
   33.270      317
   33.285      320
   33.300      331
   33.315      332
   33.330      323
   33.345      323
   33.360      330
   33.375      335
   33.390      331
   33.405      324
   33.420      328
   33.435      335
   33.450      330
   33.465      314
   33.480      312
   33.495      316
   33.510      333
   33.525      342
   33.540      324
   33.555      319
   33.570      316
   33.585      311
   33.600      310
   33.615      301
   33.630      306
   33.645      327
   33.660      330
   33.675      326
   33.690      329
   33.705      318
   33.720      317
   33.735      322
   33.750      313
   33.765      296
   33.780      305
   33.795      321
   33.810      320
   33.825      317
   33.840      307
   33.855      303
   33.870      298
   33.885      285
   33.900      280
   33.915      297
   33.930      310
   33.945      297
   33.960      303
   33.975      313
   33.990      318
   34.005      335
   34.020      315
   34.035      302
   34.050      309
   34.065      302
   34.080      306
   34.095      318
   34.110      319
   34.125      311
   34.140      312
   34.155      309
   34.170      303
   34.185      314
   34.200      308
   34.215      297
   34.230      314
   34.245      324
   34.260      324
   34.275      324
   34.290      316
   34.305      314
   34.320      303
   34.335      309
   34.350      334
   34.365      339
   34.380      330
   34.395      338
   34.410      346
   34.425      355
   34.440      341
   34.455      346
   34.470      367
   34.485      375
   34.500      379
   34.515      357
   34.530      342
   34.545      327
   34.560      322
   34.575      329
   34.590      323
   34.605      306
   34.620      293
   34.635      299
   34.650      304
   34.665      311
   34.680      323
   34.695      309
   34.710      282
   34.725      274
   34.740      288
   34.755      289
   34.770      304
   34.785      320
   34.800      308
   34.815      295
   34.830      297
   34.845      298
   34.860      288
   34.875      275
   34.890      273
   34.905      276
   34.920      283
   34.935      284
   34.950      287
   34.965      294
   34.980      279
   34.995      269
   35.010      268
   35.025      277
   35.040      285
   35.055      278
   35.070      280
   35.085      292
   35.100      290
   35.115      283
   35.130      285
   35.145      291
   35.160      293
   35.175      284
   35.190      292
   35.205      306
   35.220      305
   35.235      298
   35.250      300
   35.265      293
   35.280      278
   35.295      271
   35.310      271
   35.325      271
   35.340      265
   35.355      259
   35.370      261
   35.385      276
   35.400      288
   35.415      285
   35.430      289
   35.445      300
   35.460      300
   35.475      295
   35.490      297
   35.505      315
   35.520      340
   35.535      359
   35.550      370
   35.565      361
   35.580      355
   35.595      353
   35.610      345
   35.625      343
   35.640      339
   35.655      322
   35.670      294
   35.685      282
   35.700      290
   35.715      291
   35.730      277
   35.745      278
   35.760      272
   35.775      245
   35.790      236
   35.805      242
   35.820      257
   35.835      271
   35.850      282
   35.865      282
   35.880      275
   35.895      267
   35.910      250
   35.925      246
   35.940      260
   35.955      256
   35.970      258
   35.985      267
   36.000      249
   36.015      247
   36.030      243
   36.045      253
   36.060      266
   36.075      273
   36.090      257
   36.105      243
   36.120      257
   36.135      254
   36.150      245
   36.165      230
   36.180      227
   36.195      237
   36.210      257
   36.225      261
   36.240      249
   36.255      248
   36.270      241
   36.285      240
   36.300      247
   36.315      249
   36.330      247
   36.345      243
   36.360      239
   36.375      230
   36.390      233
   36.405      254
   36.420      260
   36.435      249
   36.450      239
   36.465      236
   36.480      241
   36.495      245
   36.510      256
   36.525      249
   36.540      229
   36.555      227
   36.570      234
   36.585      243
