    0.000       10
    0.015       11
    0.030       10
    0.045       11
    0.060       12
    0.075       13
    0.090       17
    0.105       13
    0.120       11
    0.135       13
    0.150       11
    0.165       14
    0.180       14
    0.195       13
    0.210       13
    0.225       13
    0.240       10
    0.255        9
    0.270       10
    0.285       10
    0.300       10
    0.315       10
    0.330        8
    0.345        9
    0.360        9
    0.375       10
    0.390        9
    0.405       11
    0.420       10
    0.435       10
    0.450       10
    0.465        7
    0.480        9
    0.495       12
    0.510       11
    0.525       11
    0.540       10
    0.555        6
    0.570        6
    0.585        6
    0.600        5
    0.615        7
    0.630        6
    0.645        6
    0.660        5
    0.675        7
    0.690        8
    0.705        9
    0.720       12
    0.735       12
    0.750        9
    0.765        7
    0.780        6
    0.795        5
    0.810        6
    0.825        7
    0.840        5
    0.855        6
    0.870        7
    0.885        5
    0.900        6
    0.915        5
    0.930        7
    0.945        8
    0.960        9
    0.975       10
    0.990       10
    1.005       10
    1.020       11
    1.035       14
    1.050       16
    1.065       19
    1.080       19
    1.095       20
    1.110       16
    1.125       19
    1.140       23
    1.155       22
    1.170       34
    1.185       37
    1.200       33
    1.215       39
    1.230       43
    1.245       34
    1.260       38
    1.275       47
    1.290       47
    1.305       44
    1.320       64
    1.335       62
    1.350       57
    1.365       69
    1.380       82
    1.395       66
    1.410       78
    1.425       78
    1.440       75
    1.455       84
    1.470       83
    1.485       75
    1.500       93
    1.515       95
    1.530       96
    1.545       90
    1.560       96
    1.575       90
    1.590      110
    1.605       96
    1.620      103
    1.635      108
    1.650      119
    1.665      108
    1.680      103
    1.695      126
    1.710      126
    1.725      131
    1.740      129
    1.755      132
    1.770      136
    1.785      134
    1.800      129
    1.815      117
    1.830      116
    1.845      131
    1.860      143
    1.875      127
    1.890      115
    1.905      117
    1.920      129
    1.935      136
    1.950      133
    1.965      142
    1.980      148
    1.995      152
    2.010      152
    2.025      166
    2.040      185
    2.055      207
    2.070      220
    2.085      213
    2.100      213
    2.115      229
    2.130      239
    2.145      237
    2.160      241
    2.175      238
    2.190      241
    2.205      237
    2.220      251
    2.235      255
    2.250      245
    2.265      259
    2.280      256
    2.295      249
    2.310      260
    2.325      262
    2.340      244
    2.355      249
    2.370      263
    2.385      262
    2.400      251
    2.415      245
    2.430      257
    2.445      273
    2.460      285
    2.475      273
    2.490      260
    2.505      257
    2.520      257
    2.535      284
    2.550      272
    2.565      297
    2.580      282
    2.595      280
    2.610      284
    2.625      280
    2.640      278
    2.655      289
    2.670      303
    2.685      263
    2.700      290
    2.715      307
    2.730      298
    2.745      300
    2.760      301
    2.775      304
    2.790      269
    2.805      288
    2.820      318
    2.835      312
    2.850      331
    2.865      306
    2.880      314
    2.895      312
    2.910      321
    2.925      300
    2.940      292
    2.955      314
    2.970      322
    2.985      336
    3.000      333
    3.015      329
    3.030      349
    3.045      348
    3.060      343
    3.075      351
    3.090      373
    3.105      342
    3.120      335
    3.135      354
    3.150      387
    3.165      383
    3.180      373
    3.195      390
    3.210      384
    3.225      335
    3.240      346
    3.255      401
    3.270      416
    3.285      415
    3.300      412
    3.315      398
    3.330      391
    3.345      402
    3.360      446
    3.375      432
    3.390      455
    3.405      403
    3.420      451
    3.435      426
    3.450      434
    3.465      485
    3.480      463
    3.495      483
    3.510      500
    3.525      496
    3.540      510
    3.555      533
    3.570      493
    3.585      541
    3.600      514
    3.615      483
    3.630      490
    3.645      505
    3.660      510
    3.675      532
    3.690      499
    3.705      514
    3.720      502
    3.735      532
    3.750      491
    3.765      563
    3.780      570
    3.795      543
    3.810      606
    3.825      611
    3.840      549
    3.855      537
    3.870      578
    3.885      596
    3.900      518
    3.915      553
    3.930      533
    3.945      513
    3.960      549
    3.975      545
    3.990      559
    4.005      530
    4.020      593
    4.035      517
    4.050      517
    4.065      513
    4.080      565
    4.095      575
    4.110      573
    4.125      526
    4.140      598
    4.155      655
    4.170      652
    4.185      603
    4.200      639
    4.215      634
    4.230      617
    4.245      657
    4.260      699
    4.275      695
    4.290      741
    4.305      679
    4.320      710
    4.335      671
    4.350      695
    4.365      680
    4.380      643
    4.395      700
    4.410      645
    4.425      638
    4.440      640
    4.455      655
    4.470      632
    4.485      656
    4.500      692
    4.515      717
    4.530      694
    4.545      696
    4.560      670
    4.575      655
    4.590      690
    4.605      732
    4.620      735
    4.635      749
    4.650      740
    4.665      689
    4.680      756
    4.695      810
    4.710      795
    4.725      749
    4.740      773
    4.755      837
    4.770      801
    4.785      789
    4.800      852
    4.815      802
    4.830      896
    4.845      799
    4.860      863
    4.875      844
    4.890      806
    4.905      794
    4.920      812
    4.935      744
    4.950      798
    4.965      820
    4.980      735
    4.995      799
    5.010      798
    5.025      726
    5.040      795
    5.055      820
    5.070      808
    5.085      750
    5.100      768
    5.115      842
    5.130      815
    5.145      812
    5.160      832
    5.175      843
    5.190      822
    5.205      851
    5.220      858
    5.235      892
    5.250      885
    5.265      947
    5.280      926
    5.295      935
    5.310      949
    5.325      934
    5.340      990
    5.355      995
    5.370      997
    5.385      991
    5.400      929
    5.415      980
    5.430      930
    5.445      876
    5.460      864
    5.475      847
    5.490      868
    5.505      785
    5.520      771
    5.535      772
    5.550      820
    5.565      807
    5.580      742
    5.595      791
    5.610      780
    5.625      754
    5.640      783
    5.655      783
    5.670      791
    5.685      779
    5.700      787
    5.715      823
    5.730      804
    5.745      814
    5.760      815
    5.775      801
    5.790      797
    5.805      809
    5.820      789
    5.835      760
    5.850      777
    5.865      772
    5.880      735
    5.895      732
    5.910      760
    5.925      751
    5.940      746
    5.955      775
    5.970      728
    5.985      729
    6.000      719
    6.015      700
    6.030      697
    6.045      721
    6.060      710
    6.075      732
    6.090      721
    6.105      678
    6.120      712
    6.135      729
    6.150      719
    6.165      688
    6.180      664
    6.195      687
    6.210      687
    6.225      694
    6.240      689
    6.255      696
    6.270      703
    6.285      671
    6.300      676
    6.315      690
    6.330      688
    6.345      674
    6.360      666
    6.375      709
    6.390      723
    6.405      689
    6.420      693
    6.435      729
    6.450      704
    6.465      684
    6.480      718
    6.495      709
    6.510      699
    6.525      721
    6.540      712
    6.555      706
    6.570      726
    6.585      727
    6.600      696
    6.615      663
    6.630      681
    6.645      651
    6.660      649
    6.675      645
    6.690      636
    6.705      654
    6.720      689
    6.735      666
    6.750      654
    6.765      645
    6.780      644
    6.795      655
    6.810      693
    6.825      680
    6.840      677
    6.855      695
    6.870      697
    6.885      681
    6.900      716
    6.915      732
    6.930      734
    6.945      688
    6.960      716
    6.975      726
    6.990      728
    7.005      741
    7.020      772
    7.035      747
    7.050      765
    7.065      757
    7.080      744
    7.095      792
    7.110      780
    7.125      714
    7.140      710
    7.155      724
    7.170      704
    7.185      742
    7.200      693
    7.215      678
    7.230      713
    7.245      701
    7.260      676
    7.275      722
    7.290      714
    7.305      722
    7.320      692
    7.335      648
    7.350      615
    7.365      701
    7.380      681
    7.395      698
    7.410      707
    7.425      662
    7.440      696
    7.455      652
    7.470      715
    7.485      700
    7.500      739
    7.515      699
    7.530      711
    7.545      796
    7.560      712
    7.575      734
    7.590      755
    7.605      754
    7.620      742
    7.635      756
    7.650      791
    7.665      846
    7.680      829
    7.695      777
    7.710      876
    7.725      861
    7.740      883
    7.755      875
    7.770      851
    7.785      826
    7.800      803
    7.815      884
    7.830      880
    7.845      869
    7.860      867
    7.875      874
    7.890      908
    7.905      831
    7.920      821
    7.935      884
    7.950      857
    7.965      855
    7.980      875
    7.995      866
    8.010      860
    8.025      839
    8.040      828
    8.055      807
    8.070      786
    8.085      752
    8.100      787
    8.115      787
    8.130      798
    8.145      815
    8.160      802
    8.175      827
    8.190      870
    8.205      868
    8.220      864
    8.235      908
    8.250      937
    8.265      988
    8.280     1031
    8.295     1063
    8.310     1086
    8.325     1123
    8.340     1145
    8.355     1236
    8.370     1364
    8.385     1447
    8.400     1532
    8.415     1611
    8.430     1716
    8.445     1913
    8.460     2111
    8.475     2177
    8.490     2085
    8.505     1803
    8.520     1532
    8.535     1336
    8.550     1132
    8.565     1020
    8.580     1005
    8.595      976
    8.610      935
    8.625      912
    8.640      887
    8.655      877
    8.670      846
    8.685      819
    8.700      826
    8.715      796
    8.730      796
    8.745      816
    8.760      751
    8.775      727
    8.790      734
    8.805      727
    8.820      755
    8.835      732
    8.850      686
    8.865      692
    8.880      708
    8.895      713
    8.910      748
    8.925      777
    8.940      746
    8.955      729
    8.970      740
    8.985      825
    9.000      851
    9.015      780
    9.030      787
    9.045      823
    9.060      826
    9.075      802
    9.090      817
    9.105      834
    9.120      863
    9.135      895
    9.150      920
    9.165      884
    9.180      942
    9.195      944
    9.210      896
    9.225      879
    9.240      827
    9.255      819
    9.270      833
    9.285      826
    9.300      764
    9.315      767
    9.330      723
    9.345      759
    9.360      732
    9.375      740
    9.390      772
    9.405      747
    9.420      785
    9.435      691
    9.450      807
    9.465      781
    9.480      767
    9.495      740
    9.510      761
    9.525      753
    9.540      796
    9.555      749
    9.570      776
    9.585      812
    9.600      859
    9.615      864
    9.630      903
    9.645      826
    9.660      904
    9.675      850
    9.690      842
    9.705      881
    9.720      932
    9.735      820
    9.750      838
    9.765      760
    9.780      834
    9.795      804
    9.810      817
    9.825      802
    9.840      827
    9.855      811
    9.870      773
    9.885      768
    9.900      769
    9.915      757
    9.930      716
    9.945      771
    9.960      826
    9.975      828
    9.990      744
   10.005      739
   10.020      838
   10.035      815
   10.050      779
   10.065      784
   10.080      739
   10.095      826
   10.110      855
   10.125      820
   10.140      830
   10.155      785
   10.170      818
   10.185      847
   10.200      804
   10.215      823
   10.230      874
   10.245      893
   10.260      871
   10.275      841
   10.290      846
   10.305      849
   10.320      810
   10.335      874
   10.350      915
   10.365      902
   10.380      880
   10.395      883
   10.410      913
   10.425      943
   10.440      889
   10.455      901
   10.470      921
   10.485      930
   10.500      937
   10.515      939
   10.530      943
   10.545      977
   10.560     1014
   10.575     1025
   10.590     1069
   10.605     1084
   10.620     1095
   10.635     1127
   10.650     1140
   10.665     1162
   10.680     1217
   10.695     1234
   10.710     1238
   10.725     1258
   10.740     1282
   10.755     1323
   10.770     1348
   10.785     1372
   10.800     1388
   10.815     1458
   10.830     1539
   10.845     1546
   10.860     1475
   10.875     1395
   10.890     1355
   10.905     1332
   10.920     1287
   10.935     1265
   10.950     1269
   10.965     1271
   10.980     1225
   10.995     1234
   11.010     1224
   11.025     1257
   11.040     1302
   11.055     1335
   11.070     1294
   11.085     1326
   11.100     1422
   11.115     1407
   11.130     1330
   11.145     1366
   11.160     1377
   11.175     1326
   11.190     1331
   11.205     1318
   11.220     1270
   11.235     1121
   11.250     1050
   11.265     1019
   11.280     1039
   11.295      989
   11.310     1033
   11.325      992
   11.340      974
   11.355      927
   11.370      957
   11.385      955
   11.400      948
   11.415      968
   11.430      931
   11.445      935
   11.460      905
   11.475      912
   11.490      913
   11.505      907
   11.520      895
   11.535      918
   11.550      841
   11.565      890
   11.580      897
   11.595      929
   11.610      922
   11.625      908
   11.640      898
   11.655      836
   11.670      936
   11.685      870
   11.700      875
   11.715      844
   11.730      838
   11.745      872
   11.760      851
   11.775      848
   11.790      857
   11.805      892
   11.820      829
   11.835      763
   11.850      861
   11.865      801
   11.880      790
   11.895      821
   11.910      802
   11.925      777
   11.940      746
   11.955      784
   11.970      756
   11.985      786
   12.000      731
   12.015      767
   12.030      793
   12.045      755
   12.060      745
   12.075      768
   12.090      766
   12.105      760
   12.120      741
   12.135      750
   12.150      717
   12.165      733
   12.180      708
   12.195      704
   12.210      705
   12.225      718
   12.240      675
   12.255      690
   12.270      654
   12.285      694
   12.300      719
   12.315      691
   12.330      702
   12.345      653
   12.360      692
   12.375      731
   12.390      655
   12.405      682
   12.420      654
   12.435      600
   12.450      689
   12.465      675
   12.480      671
   12.495      666
   12.510      641
   12.525      629
   12.540      632
   12.555      591
   12.570      607
   12.585      620
   12.600      639
   12.615      665
   12.630      662
   12.645      658
   12.660      631
   12.675      650
   12.690      656
   12.705      657
   12.720      648
   12.735      648
   12.750      640
   12.765      678
   12.780      709
   12.795      703
   12.810      670
   12.825      667
   12.840      686
   12.855      695
   12.870      700
   12.885      707
   12.900      664
   12.915      662
   12.930      676
   12.945      662
   12.960      648
   12.975      670
   12.990      661
   13.005      701
   13.020      676
   13.035      647
   13.050      673
   13.065      697
   13.080      725
   13.095      710
   13.110      669
   13.125      642
   13.140      669
   13.155      640
   13.170      659
   13.185      682
   13.200      653
   13.215      650
   13.230      618
   13.245      620
   13.260      651
   13.275      627
   13.290      657
   13.305      608
   13.320      598
   13.335      610
   13.350      588
   13.365      607
   13.380      617
   13.395      594
   13.410      590
   13.425      600
   13.440      563
   13.455      584
   13.470      597
   13.485      584
   13.500      585
   13.515      606
   13.530      592
   13.545      571
   13.560      577
   13.575      598
   13.590      600
   13.605      641
   13.620      650
   13.635      699
   13.650      759
   13.665      838
   13.680      928
   13.695      915
   13.710      993
   13.725     1073
   13.740     1194
   13.755     1332
   13.770     1469
   13.785     1748
   13.800     1966
   13.815     2211
   13.830     2458
   13.845     2775
   13.860     2968
   13.875     3005
   13.890     2858
   13.905     2624
   13.920     2169
   13.935     1659
   13.950     1263
   13.965     1023
   13.980      864
   13.995      756
   14.010      680
   14.025      642
   14.040      623
   14.055      570
   14.070      573
   14.085      603
   14.100      607
   14.115      590
   14.130      558
   14.145      552
   14.160      589
   14.175      555
   14.190      542
   14.205      535
   14.220      549
   14.235      590
   14.250      591
   14.265      583
   14.280      602
   14.295      555
   14.310      557
   14.325      553
   14.340      583
   14.355      587
   14.370      565
   14.385      552
   14.400      536
   14.415      504
   14.430      516
   14.445      545
   14.460      560
   14.475      507
   14.490      515
   14.505      543
   14.520      537
   14.535      542
   14.550      521
   14.565      535
   14.580      554
   14.595      570
   14.610      565
   14.625      563
   14.640      538
   14.655      517
   14.670      505
   14.685      503
   14.700      508
   14.715      491
   14.730      503
   14.745      468
   14.760      499
   14.775      482
   14.790      460
   14.805      471
   14.820      493
   14.835      463
   14.850      494
   14.865      455
   14.880      427
   14.895      455
   14.910      438
   14.925      438
   14.940      483
   14.955      456
   14.970      409
   14.985      449
   15.000      451
   15.015      512
   15.030      459
   15.045      438
   15.060      449
   15.075      425
   15.090      442
   15.105      435
   15.120      397
   15.135      402
   15.150      430
   15.165      425
   15.180      454
   15.195      467
   15.210      455
   15.225      445
   15.240      425
   15.255      427
   15.270      394
   15.285      415
   15.300      441
   15.315      475
   15.330      456
   15.345      433
   15.360      424
   15.375      463
   15.390      443
   15.405      432
   15.420      445
   15.435      420
   15.450      441
   15.465      448
   15.480      483
   15.495      464
   15.510      463
   15.525      431
   15.540      444
   15.555      457
   15.570      470
   15.585      429
   15.600      457
   15.615      464
   15.630      460
   15.645      430
   15.660      457
   15.675      462
   15.690      426
   15.705      444
   15.720      447
   15.735      447
   15.750      435
   15.765      414
   15.780      422
   15.795      443
   15.810      442
   15.825      476
   15.840      426
   15.855      452
   15.870      461
   15.885      464
   15.900      465
   15.915      515
   15.930      459
   15.945      440
   15.960      410
   15.975      456
   15.990      482
   16.005      425
   16.020      519
   16.035      479
   16.050      394
   16.065      431
   16.080      437
   16.095      442
   16.110      507
   16.125      539
   16.140      514
   16.155      533
   16.170      542
   16.185      619
   16.200      680
   16.215      713
   16.230      723
   16.245      782
   16.260      848
   16.275      911
   16.290      919
   16.305      871
   16.320      807
   16.335      672
   16.350      673
   16.365      605
   16.380      495
   16.395      497
   16.410      480
   16.425      442
   16.440      436
   16.455      427
   16.470      443
   16.485      411
   16.500      427
   16.515      425
   16.530      404
   16.545      433
   16.560      467
   16.575      419
   16.590      406
   16.605      436
   16.620      417
   16.635      413
   16.650      421
   16.665      410
   16.680      449
   16.695      448
   16.710      409
   16.725      420
   16.740      471
   16.755      461
   16.770      417
   16.785      404
   16.800      438
   16.815      426
   16.830      406
   16.845      417
   16.860      419
   16.875      425
   16.890      422
   16.905      412
   16.920      417
   16.935      425
   16.950      451
   16.965      457
   16.980      458
   16.995      458
   17.010      455
   17.025      459
   17.040      470
   17.055      462
   17.070      444
   17.085      413
   17.100      433
   17.115      463
   17.130      457
   17.145      455
   17.160      409
   17.175      429
   17.190      412
   17.205      424
   17.220      424
   17.235      453
   17.250      454
   17.265      437
   17.280      441
   17.295      436
   17.310      431
   17.325      414
   17.340      417
   17.355      477
   17.370      415
   17.385      440
   17.400      451
   17.415      398
   17.430      408
   17.445      444
   17.460      441
   17.475      452
   17.490      435
   17.505      454
   17.520      438
   17.535      442
   17.550      472
   17.565      440
   17.580      438
   17.595      435
   17.610      474
   17.625      460
   17.640      434
   17.655      488
   17.670      491
   17.685      474
   17.700      482
   17.715      492
   17.730      472
   17.745      491
   17.760      462
   17.775      490
   17.790      468
   17.805      454
   17.820      448
   17.835      458
   17.850      510
   17.865      492
   17.880      468
   17.895      494
   17.910      505
   17.925      488
   17.940      462
   17.955      480
   17.970      492
   17.985      485
   18.000      506
   18.015      518
   18.030      501
   18.045      482
   18.060      503
   18.075      506
   18.090      487
   18.105      513
   18.120      521
   18.135      511
   18.150      511
   18.165      523
   18.180      522
   18.195      521
   18.210      572
   18.225      559
   18.240      584
   18.255      586
   18.270      598
   18.285      609
   18.300      598
   18.315      667
   18.330      623
   18.345      628
   18.360      659
   18.375      651
   18.390      652
   18.405      676
   18.420      699
   18.435      775
   18.450      764
   18.465      707
   18.480      713
   18.495      717
   18.510      785
   18.525      747
   18.540      736
   18.555      755
   18.570      763
   18.585      716
   18.600      714
   18.615      704
   18.630      708
   18.645      711
   18.660      705
   18.675      691
   18.690      663
   18.705      622
   18.720      598
   18.735      614
   18.750      623
   18.765      616
   18.780      610
   18.795      592
   18.810      577
   18.825      597
   18.840      612
   18.855      597
   18.870      588
   18.885      593
   18.900      599
   18.915      577
   18.930      557
   18.945      552
   18.960      550
   18.975      576
   18.990      584
   19.005      600
   19.020      607
   19.035      591
   19.050      590
   19.065      584
   19.080      578
   19.095      575
   19.110      576
   19.125      587
   19.140      598
   19.155      593
   19.170      565
   19.185      560
   19.200      576
   19.215      584
   19.230      571
   19.245      585
   19.260      600
   19.275      575
   19.290      568
   19.305      568
   19.320      559
   19.335      585
   19.350      611
   19.365      598
   19.380      586
   19.395      595
   19.410      590
   19.425      582
   19.440      575
   19.455      566
   19.470      569
   19.485      592
   19.500      612
   19.515      618
   19.530      626
   19.545      648
   19.560      666
   19.575      662
   19.590      668
   19.605      723
   19.620      779
   19.635      798
   19.650      820
   19.665      869
   19.680      921
   19.695      957
   19.710      960
   19.725      920
   19.740      866
   19.755      803
   19.770      714
   19.785      634
   19.800      601
   19.815      576
   19.830      572
   19.845      591
   19.860      586
   19.875      563
   19.890      550
   19.905      560
   19.920      575
   19.935      570
   19.950      551
   19.965      555
   19.980      582
   19.995      583
   20.010      567
   20.025      562
   20.040      571
   20.055      572
   20.070      568
   20.085      578
   20.100      563
   20.115      550
   20.130      586
   20.145      598
   20.160      555
   20.175      550
   20.190      576
   20.205      574
   20.220      564
   20.235      555
   20.250      563
   20.265      572
   20.280      580
   20.295      576
   20.310      544
   20.325      571
   20.340      591
   20.355      565
   20.370      559
   20.385      565
   20.400      556
   20.415      547
   20.430      547
   20.445      547
   20.460      539
   20.475      553
   20.490      561
   20.505      562
   20.520      566
   20.535      562
   20.550      529
   20.565      543
   20.580      580
   20.595      564
   20.610      550
   20.625      530
   20.640      528
   20.655      546
   20.670      553
   20.685      523
   20.700      507
   20.715      522
   20.730      528
   20.745      536
   20.760      534
   20.775      536
   20.790      545
   20.805      534
   20.820      538
   20.835      544
   20.850      535
   20.865      526
   20.880      533
   20.895      545
   20.910      526
   20.925      524
   20.940      548
   20.955      551
   20.970      538
   20.985      562
   21.000      550
   21.015      530
   21.030      554
   21.045      562
   21.060      557
   21.075      554
   21.090      533
   21.105      512
   21.120      521
   21.135      538
   21.150      565
   21.165      566
   21.180      560
   21.195      549
   21.210      531
   21.225      550
   21.240      541
   21.255      520
   21.270      536
   21.285      558
   21.300      563
   21.315      581
   21.330      593
   21.345      592
   21.360      601
   21.375      601
   21.390      636
   21.405      676
   21.420      673
   21.435      677
   21.450      693
   21.465      707
   21.480      731
   21.495      732
   21.510      718
   21.525      704
   21.540      672
   21.555      634
   21.570      613
   21.585      602
   21.600      577
   21.615      565
   21.630      580
   21.645      580
   21.660      560
   21.675      563
   21.690      564
   21.705      557
   21.720      561
   21.735      540
   21.750      518
   21.765      534
   21.780      559
   21.795      540
   21.810      537
   21.825      546
   21.840      557
   21.855      568
   21.870      527
   21.885      499
   21.900      506
   21.915      508
   21.930      509
   21.945      516
   21.960      525
   21.975      517
   21.990      529
   22.005      530
   22.020      523
   22.035      545
   22.050      553
   22.065      537
   22.080      516
   22.095      494
   22.110      475
   22.125      486
   22.140      501
   22.155      513
   22.170      527
   22.185      513
   22.200      494
   22.215      489
   22.230      482
   22.245      473
   22.260      465
   22.275      453
   22.290      469
   22.305      489
   22.320      485
   22.335      491
   22.350      496
   22.365      485
   22.380      478
   22.395      479
   22.410      485
   22.425      475
   22.440      460
   22.455      458
   22.470      466
   22.485      486
   22.500      489
   22.515      478
   22.530      462
   22.545      453
   22.560      445
   22.575      443
   22.590      452
   22.605      457
   22.620      452
   22.635      455
   22.650      467
   22.665      472
   22.680      466
   22.695      453
   22.710      450
   22.725      454
   22.740      452
   22.755      444
   22.770      442
   22.785      451
   22.800      446
   22.815      453
   22.830      452
   22.845      430
   22.860      422
   22.875      434
   22.890      455
   22.905      454
   22.920      439
   22.935      432
   22.950      422
   22.965      407
   22.980      407
   22.995      417
   23.010      429
   23.025      449
   23.040      453
   23.055      431
   23.070      417
   23.085      428
   23.100      435
   23.115      454
   23.130      474
   23.145      462
   23.160      442
   23.175      436
   23.190      443
   23.205      449
   23.220      442
   23.235      439
   23.250      431
   23.265      424
   23.280      426
   23.295      424
   23.310      419
   23.325      407
   23.340      411
   23.355      409
   23.370      409
   23.385      425
   23.400      428
   23.415      417
   23.430      409
   23.445      412
   23.460      417
   23.475      425
   23.490      411
   23.505      403
   23.520      426
   23.535      435
   23.550      419
   23.565      404
   23.580      406
   23.595      423
   23.610      426
   23.625      412
   23.640      405
   23.655      400
   23.670      406
   23.685      406
   23.700      417
   23.715      429
   23.730      428
   23.745      414
   23.760      389
   23.775      401
   23.790      406
   23.805      405
   23.820      422
   23.835      422
   23.850      404
   23.865      418
   23.880      445
   23.895      436
   23.910      427
   23.925      431
   23.940      432
   23.955      428
   23.970      434
   23.985      438
   24.000      439
   24.015      480
   24.030      530
   24.045      546
   24.060      565
   24.075      628
   24.090      688
   24.105      739
   24.120      806
   24.135      868
   24.150      947
   24.165     1048
   24.180     1098
   24.195     1075
   24.210     1031
   24.225      949
   24.240      830
   24.255      701
   24.270      609
   24.285      547
   24.300      514
   24.315      474
   24.330      425
   24.345      435
   24.360      449
   24.375      447
   24.390      419
   24.405      394
   24.420      395
   24.435      385
   24.450      394
   24.465      417
   24.480      390
   24.495      387
   24.510      407
   24.525      400
   24.540      366
   24.555      350
   24.570      382
   24.585      391
   24.600      370
   24.615      350
   24.630      378
   24.645      391
   24.660      376
   24.675      364
   24.690      354
   24.705      366
   24.720      361
   24.735      358
   24.750      366
   24.765      380
   24.780      388
   24.795      382
   24.810      379
   24.825      363
   24.840      358
   24.855      359
   24.870      345
   24.885      352
   24.900      385
   24.915      386
   24.930      363
   24.945      365
   24.960      363
   24.975      360
   24.990      368
   25.005      350
   25.020      333
   25.035      343
   25.050      349
   25.065      364
   25.080      365
   25.095      367
   25.110      373
   25.125      367
   25.140      363
   25.155      361
   25.170      358
   25.185      352
   25.200      344
   25.215      341
   25.230      347
   25.245      345
   25.260      347
   25.275      364
   25.290      371
   25.305      359
   25.320      344
   25.335      339
   25.350      345
   25.365      359
   25.380      367
   25.395      360
   25.410      357
   25.425      360
   25.440      357
   25.455      371
   25.470      381
   25.485      378
   25.500      388
   25.515      392
   25.530      378
   25.545      371
   25.560      387
   25.575      408
   25.590      420
   25.605      430
   25.620      449
   25.635      468
   25.650      485
   25.665      487
   25.680      490
   25.695      505
   25.710      488
   25.725      451
   25.740      434
   25.755      422
   25.770      396
   25.785      373
   25.800      365
   25.815      358
   25.830      361
   25.845      361
   25.860      351
   25.875      351
   25.890      353
   25.905      341
   25.920      330
   25.935      338
   25.950      350
   25.965      345
   25.980      337
   25.995      345
   26.010      350
   26.025      353
   26.040      352
   26.055      346
   26.070      339
   26.085      327
   26.100      335
   26.115      338
   26.130      340
   26.145      345
   26.160      344
   26.175      335
   26.190      333
   26.205      349
   26.220      342
   26.235      321
   26.250      332
   26.265      341
   26.280      337
   26.295      319
   26.310      319
   26.325      321
   26.340      340
   26.355      348
   26.370      352
   26.385      350
   26.400      320
   26.415      321
   26.430      326
   26.445      328
   26.460      317
   26.475      308
   26.490      315
   26.505      315
   26.520      321
   26.535      318
   26.550      298
   26.565      296
   26.580      314
   26.595      312
   26.610      307
   26.625      314
   26.640      303
   26.655      304
   26.670      326
   26.685      315
   26.700      277
   26.715      292
   26.730      306
   26.745      295
   26.760      302
   26.775      307
   26.790      294
   26.805      293
   26.820      297
   26.835      308
   26.850      316
   26.865      318
   26.880      329
   26.895      329
   26.910      312
   26.925      303
   26.940      310
   26.955      323
   26.970      332
   26.985      322
   27.000      313
   27.015      328
   27.030      323
   27.045      313
   27.060      313
   27.075      303
   27.090      305
   27.105      310
   27.120      315
   27.135      312
   27.150      323
   27.165      316
   27.180      308
   27.195      326
   27.210      334
   27.225      327
   27.240      311
   27.255      299
   27.270      295
   27.285      304
   27.300      311
   27.315      312
   27.330      316
   27.345      317
   27.360      323
   27.375      331
   27.390      336
   27.405      331
   27.420      314
   27.435      298
   27.450      297
   27.465      298
   27.480      303
   27.495      309
   27.510      300
   27.525      297
   27.540      305
   27.555      314
   27.570      324
   27.585      331
   27.600      332
   27.615      332
   27.630      328
   27.645      318
   27.660      315
   27.675      327
   27.690      335
   27.705      320
   27.720      320
   27.735      328
   27.750      329
   27.765      320
   27.780      308
   27.795      321
   27.810      337
   27.825      346
   27.840      362
   27.855      364
   27.870      352
   27.885      366
   27.900      382
   27.915      381
   27.930      398
   27.945      428
   27.960      464
   27.975      480
   27.990      482
   28.005      483
   28.020      461
   28.035      442
   28.050      422
   28.065      387
   28.080      377
   28.095      374
   28.110      358
   28.125      355
   28.140      357
   28.155      341
   28.170      327
   28.185      337
   28.200      360
   28.215      344
   28.230      321
   28.245      327
   28.260      319
   28.275      297
   28.290      297
   28.305      314
   28.320      307
   28.335      310
   28.350      332
   28.365      331
   28.380      345
   28.395      343
   28.410      325
   28.425      323
   28.440      318
   28.455      314
   28.470      300
   28.485      304
   28.500      327
   28.515      332
   28.530      325
   28.545      324
   28.560      328
   28.575      324
   28.590      320
   28.605      324
   28.620      344
   28.635      365
   28.650      338
   28.665      315
   28.680      316
   28.695      324
   28.710      322
   28.725      317
   28.740      318
   28.755      315
   28.770      317
   28.785      320
   28.800      314
   28.815      319
   28.830      329
   28.845      318
   28.860      307
   28.875      304
   28.890      320
   28.905      326
   28.920      310
   28.935      300
   28.950      297
   28.965      300
   28.980      322
   28.995      342
   29.010      351
   29.025      352
   29.040      349
   29.055      342
   29.070      347
   29.085      355
   29.100      337
   29.115      322
   29.130      325
   29.145      335
   29.160      346
   29.175      358
   29.190      370
   29.205      371
   29.220      383
   29.235      398
   29.250      394
   29.265      404
   29.280      430
   29.295      452
   29.310      453
   29.325      422
   29.340      398
   29.355      398
   29.370      400
   29.385      382
   29.400      355
   29.415      348
   29.430      357
   29.445      353
   29.460      342
   29.475      352
   29.490      351
   29.505      326
   29.520      319
   29.535      340
   29.550      349
   29.565      335
   29.580      326
   29.595      333
   29.610      332
   29.625      324
   29.640      335
   29.655      341
   29.670      337
   29.685      326
   29.700      300
   29.715      297
   29.730      308
   29.745      312
   29.760      319
   29.775      322
   29.790      312
   29.805      303
   29.820      302
   29.835      315
   29.850      324
   29.865      316
   29.880      320
   29.895      325
   29.910      323
   29.925      323
   29.940      325
   29.955      322
   29.970      320
   29.985      310
   30.000      296
   30.015      310
   30.030      343
   30.045      353
   30.060      316
   30.075      307
   30.090      331
   30.105      331
   30.120      328
   30.135      344
   30.150      355
   30.165      337
   30.180      322
   30.195      332
   30.210      332
   30.225      315
   30.240      307
   30.255      309
   30.270      312
   30.285      315
   30.300      319
   30.315      325
   30.330      320
   30.345      322
   30.360      325
   30.375      332
   30.390      329
   30.405      323
   30.420      327
   30.435      326
   30.450      324
   30.465      323
   30.480      323
   30.495      321
   30.510      321
   30.525      303
   30.540      299
   30.555      314
   30.570      312
   30.585      313
   30.600      311
   30.615      299
   30.630      297
   30.645      310
   30.660      337
   30.675      335
   30.690      321
   30.705      317
   30.720      307
   30.735      322
   30.750      331
   30.765      343
   30.780      336
   30.795      319
   30.810      322
   30.825      322
   30.840      319
   30.855      306
   30.870      294
   30.885      301
   30.900      323
   30.915      332
   30.930      311
   30.945      306
   30.960      315
   30.975      321
   30.990      320
   31.005      322
   31.020      334
   31.035      338
   31.050      342
   31.065      326
   31.080      325
   31.095      345
   31.110      329
   31.125      320
   31.140      330
   31.155      331
   31.170      325
   31.185      351
   31.200      393
   31.215      395
   31.230      371
   31.245      370
   31.260      376
   31.275      386
   31.290      402
   31.305      405
   31.320      403
   31.335      424
   31.350      473
   31.365      544
   31.380      574
   31.395      548
   31.410      517
   31.425      476
   31.440      438
   31.455      423
   31.470      417
   31.485      405
   31.500      384
   31.515      362
   31.530      337
   31.545      339
   31.560      349
   31.575      354
   31.590      348
   31.605      333
   31.620      334
   31.635      349
   31.650      348
   31.665      326
   31.680      323
   31.695      325
   31.710      314
   31.725      322
   31.740      328
   31.755      323
   31.770      318
   31.785      321
   31.800      328
   31.815      317
   31.830      317
   31.845      323
   31.860      321
   31.875      326
   31.890      328
   31.905      320
   31.920      319
   31.935      332
   31.950      337
   31.965      338
   31.980      327
   31.995      320
   32.010      324
   32.025      329
   32.040      324
   32.055      314
   32.070      321
   32.085      325
   32.100      325
   32.115      330
   32.130      336
   32.145      338
   32.160      333
   32.175      343
   32.190      341
   32.205      331
   32.220      335
   32.235      328
   32.250      322
   32.265      321
   32.280      306
   32.295      302
   32.310      316
   32.325      329
   32.340      341
   32.355      339
   32.370      334
   32.385      329
   32.400      323
   32.415      331
   32.430      335
   32.445      330
   32.460      334
   32.475      345
   32.490      343
   32.505      346
   32.520      362
   32.535      361
   32.550      354
   32.565      358
   32.580      349
   32.595      333
   32.610      330
   32.625      335
   32.640      334
   32.655      331
   32.670      328
   32.685      321
   32.700      316
   32.715      320
   32.730      329
   32.745      330
   32.760      328
   32.775      324
   32.790      323
   32.805      320
   32.820      319
   32.835      332
   32.850      335
   32.865      321
   32.880      314
   32.895      319
   32.910      314
   32.925      320
   32.940      337
   32.955      344
   32.970      338
   32.985      317
   33.000      308
   33.015      320
   33.030      319
   33.045      312
   33.060      311
   33.075      310
   33.090      312
   33.105      319
   33.120      321
   33.135      309
   33.150      307
   33.165      315
   33.180      299
   33.195      290
   33.210      310
   33.225      322
   33.240      320
   33.255      313
   33.270      307
   33.285      309
   33.300      320
   33.315      327
   33.330      324
   33.345      318
   33.360      329
   33.375      342
   33.390      331
   33.405      326
   33.420      335
   33.435      326
   33.450      308
   33.465      302
   33.480      312
   33.495      311
   33.510      296
   33.525      307
   33.540      330
   33.555      339
   33.570      324
   33.585      318
   33.600      316
   33.615      303
   33.630      316
   33.645      330
   33.660      329
   33.675      329
   33.690      327
   33.705      310
   33.720      297
   33.735      318
   33.750      322
   33.765      310
   33.780      303
   33.795      288
   33.810      289
   33.825      296
   33.840      293
   33.855      303
   33.870      295
   33.885      297
   33.900      297
   33.915      277
   33.930      289
   33.945      321
   33.960      322
   33.975      316
   33.990      304
   34.005      297
   34.020      301
   34.035      305
   34.050      302
   34.065      280
   34.080      281
   34.095      293
   34.110      297
   34.125      303
   34.140      308
   34.155      301
   34.170      304
   34.185      314
   34.200      319
   34.215      319
   34.230      313
   34.245      318
   34.260      324
   34.275      332
   34.290      321
   34.305      290
   34.320      296
   34.335      311
   34.350      312
   34.365      313
   34.380      312
   34.395      309
   34.410      308
   34.425      319
   34.440      346
   34.455      375
   34.470      365
   34.485      357
   34.500      367
   34.515      354
   34.530      330
   34.545      320
   34.560      302
   34.575      294
   34.590      300
   34.605      289
   34.620      290
   34.635      296
   34.650      277
   34.665      271
   34.680      297
   34.695      299
   34.710      298
   34.725      301
   34.740      291
   34.755      292
   34.770      306
   34.785      291
   34.800      283
   34.815      295
   34.830      301
   34.845      312
   34.860      317
   34.875      305
   34.890      295
   34.905      282
   34.920      275
   34.935      291
   34.950      299
   34.965      297
   34.980      297
   34.995      298
   35.010      288
   35.025      289
   35.040      286
   35.055      279
   35.070      282
   35.085      285
   35.100      293
   35.115      307
   35.130      294
   35.145      274
   35.160      281
   35.175      298
   35.190      302
   35.205      290
   35.220      278
   35.235      278
   35.250      276
   35.265      285
   35.280      292
   35.295      294
   35.310      288
   35.325      272
   35.340      258
   35.355      263
   35.370      277
   35.385      282
   35.400      285
   35.415      284
   35.430      287
   35.445      292
   35.460      294
   35.475      294
   35.490      303
   35.505      310
   35.520      308
   35.535      304
   35.550      304
   35.565      326
   35.580      333
   35.595      315
   35.610      310
   35.625      304
   35.640      295
   35.655      296
   35.670      288
   35.685      281
   35.700      269
   35.715      264
   35.730      266
   35.745      258
   35.760      261
   35.775      260
   35.790      263
   35.805      258
   35.820      261
   35.835      277
   35.850      269
   35.865      258
   35.880      261
   35.895      257
   35.910      257
   35.925      253
   35.940      255
   35.955      263
   35.970      263
   35.985      260
   36.000      251
   36.015      250
   36.030      249
   36.045      254
   36.060      257
   36.075      248
   36.090      251
   36.105      259
   36.120      243
   36.135      252
   36.150      263
   36.165      268
   36.180      271
   36.195      269
   36.210      261
   36.225      265
   36.240      266
   36.255      255
   36.270      268
   36.285      264
   36.300      254
   36.315      255
   36.330      251
   36.345      241
   36.360      247
   36.375      243
   36.390      227
   36.405      246
   36.420      262
   36.435      257
   36.450      253
   36.465      257
   36.480      257
   36.495      244
   36.510      242
   36.525      252
   36.540      247
   36.555      244
   36.570      246
   36.585      242
