    0.000        8
    0.015       10
    0.030       10
    0.045       10
    0.060        9
    0.075       12
    0.090        9
    0.105       12
    0.120       11
    0.135       12
    0.150       17
    0.165       10
    0.180       11
    0.195       12
    0.210       11
    0.225       10
    0.240        8
    0.255       11
    0.270       11
    0.285        7
    0.300        6
    0.315        8
    0.330        8
    0.345        7
    0.360        7
    0.375        8
    0.390        7
    0.405        5
    0.420        4
    0.435        4
    0.450        3
    0.465        5
    0.480        6
    0.495        5
    0.510        5
    0.525        6
    0.540        4
    0.555        3
    0.570        5
    0.585        6
    0.600        5
    0.615        4
    0.630        4
    0.645        5
    0.660        2
    0.675        3
    0.690        4
    0.705        4
    0.720        5
    0.735        8
    0.750        9
    0.765        6
    0.780        5
    0.795        6
    0.810        6
    0.825        5
    0.840        5
    0.855        6
    0.870        5
    0.885        7
    0.900        9
    0.915       10
    0.930        9
    0.945        7
    0.960        7
    0.975       10
    0.990        8
    1.005        8
    1.020       13
    1.035       12
    1.050       12
    1.065       17
    1.080       12
    1.095       14
    1.110       19
    1.125       19
    1.140       17
    1.155       26
    1.170       26
    1.185       29
    1.200       32
    1.215       41
    1.230       43
    1.245       52
    1.260       49
    1.275       51
    1.290       35
    1.305       41
    1.320       58
    1.335       61
    1.350       73
    1.365       62
    1.380       65
    1.395       67
    1.410       84
    1.425       68
    1.440       71
    1.455       78
    1.470       95
    1.485       84
    1.500       95
    1.515       89
    1.530       83
    1.545      105
    1.560      125
    1.575      125
    1.590      109
    1.605      117
    1.620      112
    1.635      106
    1.650      112
    1.665      108
    1.680      119
    1.695      139
    1.710      123
    1.725      121
    1.740      127
    1.755      119
    1.770      133
    1.785      135
    1.800      132
    1.815      133
    1.830      138
    1.845      131
    1.860      126
    1.875      140
    1.890      143
    1.905      135
    1.920      128
    1.935      137
    1.950      139
    1.965      140
    1.980      141
    1.995      147
    2.010      159
    2.025      162
    2.040      171
    2.055      178
    2.070      180
    2.085      199
    2.100      216
    2.115      208
    2.130      208
    2.145      225
    2.160      229
    2.175      219
    2.190      226
    2.205      237
    2.220      232
    2.235      236
    2.250      237
    2.265      220
    2.280      233
    2.295      246
    2.310      252
    2.325      247
    2.340      243
    2.355      230
    2.370      232
    2.385      242
    2.400      244
    2.415      245
    2.430      244
    2.445      250
    2.460      266
    2.475      252
    2.490      236
    2.505      263
    2.520      258
    2.535      228
    2.550      236
    2.565      239
    2.580      246
    2.595      269
    2.610      244
    2.625      251
    2.640      260
    2.655      262
    2.670      267
    2.685      275
    2.700      282
    2.715      253
    2.730      275
    2.745      290
    2.760      248
    2.775      258
    2.790      273
    2.805      260
    2.820      275
    2.835      263
    2.850      280
    2.865      290
    2.880      271
    2.895      274
    2.910      296
    2.925      270
    2.940      274
    2.955      282
    2.970      290
    2.985      272
    3.000      268
    3.015      298
    3.030      290
    3.045      263
    3.060      293
    3.075      294
    3.090      291
    3.105      305
    3.120      309
    3.135      298
    3.150      310
    3.165      326
    3.180      295
    3.195      303
    3.210      302
    3.225      312
    3.240      335
    3.255      314
    3.270      302
    3.285      305
    3.300      319
    3.315      349
    3.330      355
    3.345      330
    3.360      345
    3.375      358
    3.390      323
    3.405      305
    3.420      336
    3.435      361
    3.450      324
    3.465      376
    3.480      357
    3.495      349
    3.510      350
    3.525      339
    3.540      335
    3.555      335
    3.570      356
    3.585      350
    3.600      381
    3.615      325
    3.630      353
    3.645      390
    3.660      394
    3.675      353
    3.690      366
    3.705      367
    3.720      382
    3.735      363
    3.750      392
    3.765      398
    3.780      401
    3.795      395
    3.810      406
    3.825      404
    3.840      394
    3.855      396
    3.870      406
    3.885      401
    3.900      425
    3.915      399
    3.930      433
    3.945      462
    3.960      448
    3.975      453
    3.990      452
    4.005      407
    4.020      440
    4.035      434
    4.050      473
    4.065      443
    4.080      452
    4.095      442
    4.110      464
    4.125      440
    4.140      463
    4.155      474
    4.170      454
    4.185      485
    4.200      540
    4.215      513
    4.230      514
    4.245      494
    4.260      518
    4.275      486
    4.290      540
    4.305      542
    4.320      590
    4.335      555
    4.350      579
    4.365      537
    4.380      589
    4.395      596
    4.410      577
    4.425      607
    4.440      603
    4.455      570
    4.470      619
    4.485      606
    4.500      669
    4.515      612
    4.530      662
    4.545      688
    4.560      608
    4.575      607
    4.590      646
    4.605      632
    4.620      672
    4.635      645
    4.650      686
    4.665      687
    4.680      702
    4.695      722
    4.710      711
    4.725      773
    4.740      721
    4.755      765
    4.770      742
    4.785      737
    4.800      769
    4.815      732
    4.830      732
    4.845      770
    4.860      827
    4.875      784
    4.890      809
    4.905      833
    4.920      850
    4.935      835
    4.950      864
    4.965      834
    4.980      801
    4.995      853
    5.010      861
    5.025      838
    5.040      898
    5.055      849
    5.070      875
    5.085      888
    5.100      893
    5.115      886
    5.130      889
    5.145      859
    5.160      883
    5.175      856
    5.190      905
    5.205      911
    5.220      886
    5.235      889
    5.250      927
    5.265      919
    5.280      905
    5.295      945
    5.310      936
    5.325      850
    5.340      908
    5.355      965
    5.370      883
    5.385      920
    5.400      861
    5.415      896
    5.430      907
    5.445      933
    5.460      928
    5.475      905
    5.490      937
    5.505      912
    5.520      905
    5.535      887
    5.550      869
    5.565      867
    5.580      883
    5.595      888
    5.610      807
    5.625      797
    5.640      847
    5.655      859
    5.670      862
    5.685      861
    5.700      793
    5.715      826
    5.730      820
    5.745      840
    5.760      869
    5.775      845
    5.790      836
    5.805      854
    5.820      844
    5.835      820
    5.850      818
    5.865      822
    5.880      827
    5.895      796
    5.910      813
    5.925      807
    5.940      841
    5.955      821
    5.970      751
    5.985      765
    6.000      758
    6.015      761
    6.030      758
    6.045      786
    6.060      754
    6.075      731
    6.090      773
    6.105      758
    6.120      764
    6.135      773
    6.150      729
    6.165      725
    6.180      729
    6.195      691
    6.210      719
    6.225      731
    6.240      687
    6.255      723
    6.270      751
    6.285      741
    6.300      736
    6.315      720
    6.330      677
    6.345      624
    6.360      609
    6.375      643
    6.390      664
    6.405      691
    6.420      730
    6.435      742
    6.450      723
    6.465      701
    6.480      694
    6.495      663
    6.510      668
    6.525      707
    6.540      702
    6.555      671
    6.570      673
    6.585      691
    6.600      671
    6.615      656
    6.630      688
    6.645      699
    6.660      679
    6.675      696
    6.690      675
    6.705      653
    6.720      680
    6.735      652
    6.750      609
    6.765      621
    6.780      647
    6.795      629
    6.810      642
    6.825      648
    6.840      639
    6.855      652
    6.870      644
    6.885      641
    6.900      658
    6.915      598
    6.930      623
    6.945      663
    6.960      669
    6.975      679
    6.990      610
    7.005      645
    7.020      636
    7.035      598
    7.050      655
    7.065      653
    7.080      624
    7.095      654
    7.110      640
    7.125      593
    7.140      619
    7.155      620
    7.170      548
    7.185      604
    7.200      628
    7.215      608
    7.230      599
    7.245      586
    7.260      580
    7.275      634
    7.290      623
    7.305      614
    7.320      644
    7.335      618
    7.350      605
    7.365      585
    7.380      570
    7.395      629
    7.410      614
    7.425      600
    7.440      620
    7.455      598
    7.470      592
    7.485      569
    7.500      636
    7.515      582
    7.530      608
    7.545      658
    7.560      616
    7.575      611
    7.590      606
    7.605      589
    7.620      624
    7.635      605
    7.650      612
    7.665      582
    7.680      587
    7.695      571
    7.710      579
    7.725      608
    7.740      591
    7.755      607
    7.770      655
    7.785      601
    7.800      574
    7.815      615
    7.830      620
    7.845      605
    7.860      638
    7.875      591
    7.890      621
    7.905      620
    7.920      604
    7.935      596
    7.950      607
    7.965      620
    7.980      625
    7.995      626
    8.010      626
    8.025      632
    8.040      610
    8.055      628
    8.070      641
    8.085      614
    8.100      650
    8.115      630
    8.130      558
    8.145      610
    8.160      605
    8.175      628
    8.190      603
    8.205      608
    8.220      615
    8.235      622
    8.250      614
    8.265      643
    8.280      603
    8.295      575
    8.310      597
    8.325      644
    8.340      653
    8.355      664
    8.370      673
    8.385      673
    8.400      682
    8.415      686
    8.430      685
    8.445      722
    8.460      740
    8.475      739
    8.490      738
    8.505      739
    8.520      744
    8.535      691
    8.550      635
    8.565      654
    8.580      676
    8.595      653
    8.610      637
    8.625      657
    8.640      662
    8.655      644
    8.670      638
    8.685      638
    8.700      652
    8.715      657
    8.730      677
    8.745      678
    8.760      644
    8.775      633
    8.790      634
    8.805      640
    8.820      623
    8.835      646
    8.850      685
    8.865      643
    8.880      629
    8.895      658
    8.910      674
    8.925      708
    8.940      662
    8.955      635
    8.970      650
    8.985      684
    9.000      675
    9.015      670
    9.030      636
    9.045      683
    9.060      707
    9.075      692
    9.090      666
    9.105      677
    9.120      725
    9.135      696
    9.150      706
    9.165      710
    9.180      670
    9.195      698
    9.210      719
    9.225      748
    9.240      683
    9.255      708
    9.270      703
    9.285      684
    9.300      697
    9.315      743
    9.330      722
    9.345      775
    9.360      751
    9.375      706
    9.390      761
    9.405      727
    9.420      786
    9.435      703
    9.450      726
    9.465      764
    9.480      781
    9.495      747
    9.510      783
    9.525      734
    9.540      756
    9.555      758
    9.570      742
    9.585      793
    9.600      781
    9.615      816
    9.630      770
    9.645      745
    9.660      775
    9.675      808
    9.690      836
    9.705      809
    9.720      836
    9.735      778
    9.750      846
    9.765      798
    9.780      817
    9.795      897
    9.810      759
    9.825      834
    9.840      852
    9.855      827
    9.870      813
    9.885      827
    9.900      825
    9.915      868
    9.930      827
    9.945      828
    9.960      868
    9.975      866
    9.990      852
   10.005      877
   10.020      920
   10.035      919
   10.050      914
   10.065      866
   10.080      861
   10.095      923
   10.110      938
   10.125      954
   10.140      944
   10.155      965
   10.170      958
   10.185      989
   10.200      973
   10.215      996
   10.230      997
   10.245      998
   10.260     1001
   10.275      997
   10.290      987
   10.305     1043
   10.320     1018
   10.335     1023
   10.350     1026
   10.365     1000
   10.380     1044
   10.395     1046
   10.410     1037
   10.425     1038
   10.440     1045
   10.455     1022
   10.470      981
   10.485     1008
   10.500     1044
   10.515     1014
   10.530     1020
   10.545     1112
   10.560     1112
   10.575     1054
   10.590     1090
   10.605     1095
   10.620     1088
   10.635     1114
   10.650     1123
   10.665     1084
   10.680     1064
   10.695     1133
   10.710     1171
   10.725     1185
   10.740     1179
   10.755     1145
   10.770     1138
   10.785     1136
   10.800     1202
   10.815     1235
   10.830     1161
   10.845     1197
   10.860     1236
   10.875     1165
   10.890     1184
   10.905     1187
   10.920     1159
   10.935     1206
   10.950     1175
   10.965     1126
   10.980     1159
   10.995     1140
   11.010     1129
   11.025     1167
   11.040     1137
   11.055     1156
   11.070     1195
   11.085     1189
   11.100     1168
   11.115     1163
   11.130     1143
   11.145     1152
   11.160     1149
   11.175     1203
   11.190     1195
   11.205     1206
   11.220     1134
   11.235     1084
   11.250     1119
   11.265     1086
   11.280     1140
   11.295     1124
   11.310     1156
   11.325     1093
   11.340     1065
   11.355     1060
   11.370     1046
   11.385     1054
   11.400     1045
   11.415     1036
   11.430     1064
   11.445     1075
   11.460     1027
   11.475     1101
   11.490     1072
   11.505     1053
   11.520      987
   11.535     1017
   11.550     1023
   11.565     1009
   11.580      982
   11.595     1005
   11.610     1067
   11.625     1025
   11.640      987
   11.655      982
   11.670     1022
   11.685      987
   11.700     1064
   11.715     1055
   11.730      982
   11.745     1028
   11.760     1007
   11.775      933
   11.790      963
   11.805     1028
   11.820      977
   11.835      950
   11.850      971
   11.865      984
   11.880      933
   11.895     1025
   11.910      925
   11.925      934
   11.940      951
   11.955      944
   11.970      878
   11.985      905
   12.000      965
   12.015      907
   12.030      960
   12.045      885
   12.060      870
   12.075      915
   12.090      919
   12.105      891
   12.120      923
   12.135      886
   12.150      881
   12.165      870
   12.180      905
   12.195      868
   12.210      858
   12.225      806
   12.240      831
   12.255      858
   12.270      814
   12.285      838
   12.300      814
   12.315      823
   12.330      831
   12.345      828
   12.360      836
   12.375      828
   12.390      835
   12.405      841
   12.420      834
   12.435      777
   12.450      781
   12.465      810
   12.480      837
   12.495      829
   12.510      781
   12.525      818
   12.540      762
   12.555      779
   12.570      831
   12.585      824
   12.600      786
   12.615      827
   12.630      760
   12.645      743
   12.660      762
   12.675      746
   12.690      763
   12.705      741
   12.720      759
   12.735      774
   12.750      717
   12.765      746
   12.780      786
   12.795      713
   12.810      784
   12.825      741
   12.840      739
   12.855      800
   12.870      742
   12.885      729
   12.900      692
   12.915      769
   12.930      732
   12.945      726
   12.960      698
   12.975      701
   12.990      726
   13.005      692
   13.020      666
   13.035      688
   13.050      699
   13.065      724
   13.080      696
   13.095      678
   13.110      683
   13.125      728
   13.140      713
   13.155      681
   13.170      694
   13.185      667
   13.200      646
   13.215      668
   13.230      614
   13.245      629
   13.260      637
   13.275      632
   13.290      640
   13.305      635
   13.320      630
   13.335      641
   13.350      641
   13.365      663
   13.380      625
   13.395      666
   13.410      655
   13.425      643
   13.440      615
   13.455      624
   13.470      603
   13.485      596
   13.500      608
   13.515      639
   13.530      636
   13.545      634
   13.560      594
   13.575      637
   13.590      620
   13.605      660
   13.620      609
   13.635      622
   13.650      633
   13.665      639
   13.680      628
   13.695      629
   13.710      640
   13.725      701
   13.740      677
   13.755      708
   13.770      695
   13.785      689
   13.800      760
   13.815      776
   13.830      808
   13.845      886
   13.860      876
   13.875      855
   13.890      831
   13.905      833
   13.920      751
   13.935      678
   13.950      628
   13.965      618
   13.980      598
   13.995      601
   14.010      600
   14.025      588
   14.040      595
   14.055      570
   14.070      556
   14.085      596
   14.100      567
   14.115      563
   14.130      543
   14.145      514
   14.160      503
   14.175      558
   14.190      565
   14.205      579
   14.220      554
   14.235      560
   14.250      574
   14.265      591
   14.280      566
   14.295      552
   14.310      550
   14.325      526
   14.340      523
   14.355      572
   14.370      576
   14.385      545
   14.400      509
   14.415      546
   14.430      507
   14.445      500
   14.460      519
   14.475      518
   14.490      535
   14.505      534
   14.520      530
   14.535      559
   14.550      545
   14.565      524
   14.580      522
   14.595      493
   14.610      493
   14.625      549
   14.640      541
   14.655      542
   14.670      560
   14.685      498
   14.700      469
   14.715      464
   14.730      496
   14.745      516
   14.760      514
   14.775      520
   14.790      505
   14.805      470
   14.820      504
   14.835      482
   14.850      514
   14.865      487
   14.880      474
   14.895      521
   14.910      507
   14.925      518
   14.940      503
   14.955      505
   14.970      513
   14.985      495
   15.000      508
   15.015      494
   15.030      503
   15.045      482
   15.060      494
   15.075      447
   15.090      466
   15.105      468
   15.120      448
   15.135      439
   15.150      468
   15.165      517
   15.180      474
   15.195      471
   15.210      486
   15.225      451
   15.240      449
   15.255      457
   15.270      447
   15.285      474
   15.300      490
   15.315      480
   15.330      456
   15.345      467
   15.360      473
   15.375      517
   15.390      474
   15.405      441
   15.420      426
   15.435      417
   15.450      458
   15.465      425
   15.480      457
   15.495      475
   15.510      436
   15.525      423
   15.540      452
   15.555      460
   15.570      455
   15.585      389
   15.600      437
   15.615      429
   15.630      429
   15.645      483
   15.660      432
   15.675      459
   15.690      468
   15.705      465
   15.720      453
   15.735      452
   15.750      421
   15.765      432
   15.780      470
   15.795      461
   15.810      472
   15.825      468
   15.840      449
   15.855      454
   15.870      458
   15.885      454
   15.900      462
   15.915      458
   15.930      416
   15.945      430
   15.960      450
   15.975      459
   15.990      451
   16.005      480
   16.020      457
   16.035      470
   16.050      408
   16.065      458
   16.080      444
   16.095      437
   16.110      441
   16.125      465
   16.140      460
   16.155      471
   16.170      419
   16.185      433
   16.200      489
   16.215      489
   16.230      473
   16.245      509
   16.260      511
   16.275      488
   16.290      562
   16.305      533
   16.320      489
   16.335      497
   16.350      496
   16.365      485
   16.380      455
   16.395      462
   16.410      449
   16.425      445
   16.440      455
   16.455      453
   16.470      474
   16.485      429
   16.500      441
   16.515      459
   16.530      461
   16.545      487
   16.560      465
   16.575      454
   16.590      448
   16.605      442
   16.620      452
   16.635      476
   16.650      464
   16.665      480
   16.680      480
   16.695      467
   16.710      471
   16.725      449
   16.740      454
   16.755      466
   16.770      463
   16.785      463
   16.800      462
   16.815      456
   16.830      469
   16.845      488
   16.860      480
   16.875      480
   16.890      480
   16.905      482
   16.920      472
   16.935      461
   16.950      464
   16.965      483
   16.980      459
   16.995      430
   17.010      448
   17.025      464
   17.040      460
   17.055      461
   17.070      475
   17.085      450
   17.100      450
   17.115      461
   17.130      469
   17.145      474
   17.160      479
   17.175      467
   17.190      496
   17.205      494
   17.220      461
   17.235      468
   17.250      466
   17.265      461
   17.280      439
   17.295      480
   17.310      458
   17.325      469
   17.340      464
   17.355      485
   17.370      439
   17.385      485
   17.400      503
   17.415      462
   17.430      482
   17.445      532
   17.460      493
   17.475      468
   17.490      489
   17.505      508
   17.520      491
   17.535      470
   17.550      518
   17.565      512
   17.580      500
   17.595      514
   17.610      485
   17.625      478
   17.640      475
   17.655      482
   17.670      502
   17.685      481
   17.700      471
   17.715      509
   17.730      490
   17.745      489
   17.760      510
   17.775      507
   17.790      480
   17.805      500
   17.820      510
   17.835      511
   17.850      535
   17.865      531
   17.880      503
   17.895      529
   17.910      513
   17.925      526
   17.940      527
   17.955      500
   17.970      496
   17.985      518
   18.000      537
   18.015      525
   18.030      519
   18.045      497
   18.060      495
   18.075      516
   18.090      506
   18.105      517
   18.120      502
   18.135      493
   18.150      502
   18.165      568
   18.180      515
   18.195      499
   18.210      513
   18.225      536
   18.240      538
   18.255      525
   18.270      521
   18.285      463
   18.300      502
   18.315      508
   18.330      482
   18.345      513
   18.360      548
   18.375      537
   18.390      553
   18.405      530
   18.420      522
   18.435      527
   18.450      511
   18.465      480
   18.480      478
   18.495      518
   18.510      534
   18.525      506
   18.540      532
   18.555      514
   18.570      537
   18.585      542
   18.600      520
   18.615      525
   18.630      532
   18.645      524
   18.660      531
   18.675      557
   18.690      576
   18.705      557
   18.720      541
   18.735      556
   18.750      570
   18.765      550
   18.780      528
   18.795      527
   18.810      528
   18.825      537
   18.840      547
   18.855      548
   18.870      560
   18.885      585
   18.900      594
   18.915      585
   18.930      573
   18.945      566
   18.960      573
   18.975      586
   18.990      563
   19.005      572
   19.020      575
   19.035      541
   19.050      535
   19.065      535
   19.080      531
   19.095      556
   19.110      571
   19.125      557
   19.140      567
   19.155      581
   19.170      583
   19.185      553
   19.200      539
   19.215      554
   19.230      549
   19.245      549
   19.260      542
   19.275      519
   19.290      515
   19.305      551
   19.320      585
   19.335      597
   19.350      591
   19.365      580
   19.380      575
   19.395      571
   19.410      572
   19.425      570
   19.440      550
   19.455      563
   19.470      576
   19.485      580
   19.500      578
   19.515      570
   19.530      583
   19.545      593
   19.560      579
   19.575      573
   19.590      585
   19.605      589
   19.620      597
   19.635      605
   19.650      603
   19.665      614
   19.680      626
   19.695      606
   19.710      590
   19.725      615
   19.740      621
   19.755      598
   19.770      582
   19.785      572
   19.800      574
   19.815      552
   19.830      531
   19.845      563
   19.860      598
   19.875      582
   19.890      541
   19.905      524
   19.920      551
   19.935      573
   19.950      560
   19.965      538
   19.980      534
   19.995      541
   20.010      560
   20.025      575
   20.040      557
   20.055      555
   20.070      586
   20.085      589
   20.100      567
   20.115      577
   20.130      590
   20.145      581
   20.160      563
   20.175      564
   20.190      579
   20.205      576
   20.220      559
   20.235      552
   20.250      547
   20.265      565
   20.280      568
   20.295      538
   20.310      548
   20.325      569
   20.340      576
   20.355      585
   20.370      583
   20.385      572
   20.400      564
   20.415      552
   20.430      563
   20.445      584
   20.460      570
   20.475      540
   20.490      551
   20.505      579
   20.520      569
   20.535      544
   20.550      543
   20.565      529
   20.580      540
   20.595      557
   20.610      538
   20.625      544
   20.640      555
   20.655      545
   20.670      535
   20.685      535
   20.700      565
   20.715      566
   20.730      544
   20.745      524
   20.760      525
   20.775      538
   20.790      524
   20.805      509
   20.820      511
   20.835      524
   20.850      535
   20.865      537
   20.880      526
   20.895      540
   20.910      569
   20.925      566
   20.940      559
   20.955      563
   20.970      534
   20.985      520
   21.000      536
   21.015      532
   21.030      535
   21.045      545
   21.060      541
   21.075      538
   21.090      547
   21.105      559
   21.120      566
   21.135      567
   21.150      542
   21.165      520
   21.180      527
   21.195      538
   21.210      543
   21.225      545
   21.240      528
   21.255      522
   21.270      540
   21.285      538
   21.300      520
   21.315      522
   21.330      544
   21.345      530
   21.360      514
   21.375      524
   21.390      541
   21.405      559
   21.420      549
   21.435      544
   21.450      549
   21.465      532
   21.480      523
   21.495      542
   21.510      550
   21.525      531
   21.540      533
   21.555      553
   21.570      554
   21.585      550
   21.600      530
   21.615      504
   21.630      504
   21.645      526
   21.660      533
   21.675      525
   21.690      523
   21.705      513
   21.720      510
   21.735      523
   21.750      520
   21.765      523
   21.780      529
   21.795      511
   21.810      506
   21.825      505
   21.840      511
   21.855      519
   21.870      500
   21.885      497
   21.900      526
   21.915      525
   21.930      487
   21.945      479
   21.960      479
   21.975      487
   21.990      503
   22.005      489
   22.020      509
   22.035      540
   22.050      522
   22.065      508
   22.080      504
   22.095      497
   22.110      478
   22.125      474
   22.140      493
   22.155      501
   22.170      505
   22.185      496
   22.200      491
   22.215      488
   22.230      477
   22.245      474
   22.260      482
   22.275      490
   22.290      479
   22.305      477
   22.320      502
   22.335      504
   22.350      478
   22.365      476
   22.380      486
   22.395      486
   22.410      504
   22.425      513
   22.440      491
   22.455      469
   22.470      465
   22.485      491
   22.500      502
   22.515      482
   22.530      474
   22.545      478
   22.560      476
   22.575      479
   22.590      497
   22.605      490
   22.620      464
   22.635      458
   22.650      453
   22.665      457
   22.680      472
   22.695      460
   22.710      447
   22.725      462
   22.740      459
   22.755      451
   22.770      463
   22.785      480
   22.800      472
   22.815      462
   22.830      482
   22.845      482
   22.860      465
   22.875      473
   22.890      471
   22.905      455
   22.920      453
   22.935      456
   22.950      468
   22.965      478
   22.980      473
   22.995      459
   23.010      454
   23.025      468
   23.040      484
   23.055      475
   23.070      464
   23.085      461
   23.100      454
   23.115      469
   23.130      483
   23.145      464
   23.160      428
   23.175      436
   23.190      463
   23.205      453
   23.220      435
   23.235      444
   23.250      446
   23.265      431
   23.280      437
   23.295      448
   23.310      447
   23.325      446
   23.340      431
   23.355      426
   23.370      434
   23.385      437
   23.400      445
   23.415      433
   23.430      431
   23.445      445
   23.460      441
   23.475      450
   23.490      434
   23.505      406
   23.520      414
   23.535      431
   23.550      433
   23.565      429
   23.580      432
   23.595      430
   23.610      426
   23.625      419
   23.640      420
   23.655      426
   23.670      423
   23.685      408
   23.700      399
   23.715      417
   23.730      429
   23.745      422
   23.760      405
   23.775      408
   23.790      421
   23.805      425
   23.820      421
   23.835      432
   23.850      439
   23.865      420
   23.880      408
   23.895      417
   23.910      441
   23.925      445
   23.940      430
   23.955      423
   23.970      439
   23.985      424
   24.000      406
   24.015      411
   24.030      406
   24.045      407
   24.060      413
   24.075      432
   24.090      443
   24.105      470
   24.120      479
   24.135      475
   24.150      477
   24.165      461
   24.180      466
   24.195      484
   24.210      472
   24.225      468
   24.240      449
   24.255      412
   24.270      390
   24.285      393
   24.300      403
   24.315      393
   24.330      401
   24.345      404
   24.360      395
   24.375      396
   24.390      386
   24.405      404
   24.420      392
   24.435      355
   24.450      368
   24.465      381
   24.480      389
   24.495      377
   24.510      371
   24.525      387
   24.540      401
   24.555      403
   24.570      387
   24.585      358
   24.600      368
   24.615      381
   24.630      369
   24.645      386
   24.660      393
   24.675      378
   24.690      370
   24.705      360
   24.720      358
   24.735      369
   24.750      356
   24.765      362
   24.780      368
   24.795      349
   24.810      340
   24.825      330
   24.840      341
   24.855      357
   24.870      347
   24.885      363
   24.900      369
   24.915      356
   24.930      375
   24.945      371
   24.960      360
   24.975      384
   24.990      393
   25.005      362
   25.020      348
   25.035      349
   25.050      339
   25.065      339
   25.080      345
   25.095      364
   25.110      368
   25.125      361
   25.140      353
   25.155      357
   25.170      364
   25.185      353
   25.200      331
   25.215      330
   25.230      346
   25.245      347
   25.260      345
   25.275      345
   25.290      345
   25.305      347
   25.320      336
   25.335      322
   25.350      331
   25.365      361
   25.380      367
   25.395      345
   25.410      346
   25.425      366
   25.440      365
   25.455      353
   25.470      353
   25.485      358
   25.500      360
   25.515      362
   25.530      357
   25.545      350
   25.560      365
   25.575      373
   25.590      352
   25.605      337
   25.620      351
   25.635      369
   25.650      374
   25.665      361
   25.680      342
   25.695      355
   25.710      375
   25.725      363
   25.740      344
   25.755      338
   25.770      341
   25.785      346
   25.800      338
   25.815      335
   25.830      346
   25.845      341
   25.860      328
   25.875      328
   25.890      343
   25.905      345
   25.920      326
   25.935      320
   25.950      333
   25.965      337
   25.980      339
   25.995      341
   26.010      342
   26.025      341
   26.040      336
   26.055      343
   26.070      361
   26.085      355
   26.100      334
   26.115      332
   26.130      347
   26.145      335
   26.160      318
   26.175      335
   26.190      330
   26.205      327
   26.220      318
   26.235      322
   26.250      334
   26.265      335
   26.280      337
   26.295      319
   26.310      313
   26.325      306
   26.340      312
   26.355      333
   26.370      335
   26.385      323
   26.400      321
   26.415      325
   26.430      326
   26.445      328
   26.460      308
   26.475      313
   26.490      331
   26.505      327
   26.520      322
   26.535      311
   26.550      315
   26.565      313
   26.580      303
   26.595      317
   26.610      311
   26.625      301
   26.640      303
   26.655      309
   26.670      313
   26.685      319
   26.700      312
   26.715      329
   26.730      339
   26.745      319
   26.760      316
   26.775      305
   26.790      299
   26.805      301
   26.820      295
   26.835      290
   26.850      297
   26.865      282
   26.880      267
   26.895      294
   26.910      318
   26.925      313
   26.940      306
   26.955      311
   26.970      312
   26.985      303
   27.000      313
   27.015      323
   27.030      323
   27.045      319
   27.060      311
   27.075      298
   27.090      294
   27.105      304
   27.120      312
   27.135      294
   27.150      282
   27.165      296
   27.180      307
   27.195      303
   27.210      302
   27.225      294
   27.240      289
   27.255      286
   27.270      292
   27.285      305
   27.300      312
   27.315      321
   27.330      328
   27.345      331
   27.360      327
   27.375      334
   27.390      337
   27.405      318
   27.420      301
   27.435      294
   27.450      295
   27.465      299
   27.480      301
   27.495      304
   27.510      315
   27.525      320
   27.540      313
   27.555      316
   27.570      310
   27.585      298
   27.600      305
   27.615      301
   27.630      284
   27.645      288
   27.660      307
   27.675      303
   27.690      290
   27.705      287
   27.720      291
   27.735      298
   27.750      297
   27.765      299
   27.780      310
   27.795      316
   27.810      300
   27.825      308
   27.840      331
   27.855      326
   27.870      319
   27.885      310
   27.900      305
   27.915      314
   27.930      326
   27.945      333
   27.960      322
   27.975      308
   27.990      317
   28.005      334
   28.020      332
   28.035      317
   28.050      309
   28.065      314
   28.080      314
   28.095      302
   28.110      295
   28.125      298
   28.140      299
   28.155      278
   28.170      276
   28.185      291
   28.200      293
   28.215      303
   28.230      321
   28.245      306
   28.260      270
   28.275      282
   28.290      299
   28.305      293
   28.320      289
   28.335      295
   28.350      299
   28.365      282
   28.380      287
   28.395      292
   28.410      287
   28.425      290
   28.440      305
   28.455      306
   28.470      298
   28.485      288
   28.500      288
   28.515      297
   28.530      312
   28.545      314
   28.560      311
   28.575      306
   28.590      299
   28.605      292
   28.620      297
   28.635      298
   28.650      279
   28.665      299
   28.680      331
   28.695      317
   28.710      299
   28.725      293
   28.740      290
   28.755      292
   28.770      290
   28.785      288
   28.800      298
   28.815      307
   28.830      312
   28.845      320
   28.860      325
   28.875      322
   28.890      327
   28.905      323
   28.920      302
   28.935      306
   28.950      319
   28.965      309
   28.980      293
   28.995      290
   29.010      300
   29.025      314
   29.040      325
   29.055      316
   29.070      295
   29.085      295
   29.100      303
   29.115      295
   29.130      295
   29.145      304
   29.160      303
   29.175      309
   29.190      319
   29.205      316
   29.220      303
   29.235      298
   29.250      318
   29.265      327
   29.280      318
   29.295      318
   29.310      319
   29.325      316
   29.340      310
   29.355      305
   29.370      307
   29.385      301
   29.400      298
   29.415      313
   29.430      325
   29.445      332
   29.460      334
   29.475      334
   29.490      332
   29.505      325
   29.520      326
   29.535      316
   29.550      300
   29.565      311
   29.580      317
   29.595      305
   29.610      296
   29.625      296
   29.640      310
   29.655      312
   29.670      307
   29.685      301
   29.700      298
   29.715      297
   29.730      299
   29.745      310
   29.760      322
   29.775      318
   29.790      310
   29.805      310
   29.820      327
   29.835      341
   29.850      331
   29.865      320
   29.880      309
   29.895      297
   29.910      302
   29.925      323
   29.940      333
   29.955      333
   29.970      325
   29.985      307
   30.000      303
   30.015      303
   30.030      303
   30.045      325
   30.060      337
   30.075      314
   30.090      303
   30.105      312
   30.120      331
   30.135      337
   30.150      321
   30.165      322
   30.180      321
   30.195      311
   30.210      313
   30.225      321
   30.240      323
   30.255      307
   30.270      292
   30.285      307
   30.300      308
   30.315      301
   30.330      302
   30.345      302
   30.360      316
   30.375      325
   30.390      317
   30.405      304
   30.420      283
   30.435      286
   30.450      291
   30.465      286
   30.480      281
   30.495      274
   30.510      293
   30.525      295
   30.540      284
   30.555      302
   30.570      312
   30.585      313
   30.600      316
   30.615      319
   30.630      323
   30.645      296
   30.660      309
   30.675      348
   30.690      316
   30.705      295
   30.720      305
   30.735      312
   30.750      326
   30.765      332
   30.780      322
   30.795      319
   30.810      315
   30.825      298
   30.840      291
   30.855      299
   30.870      320
   30.885      324
   30.900      310
   30.915      301
   30.930      302
   30.945      311
   30.960      317
   30.975      314
   30.990      327
   31.005      325
   31.020      310
   31.035      332
   31.050      337
   31.065      321
   31.080      305
   31.095      309
   31.110      321
   31.125      319
   31.140      318
   31.155      321
   31.170      329
   31.185      343
   31.200      333
   31.215      310
   31.230      308
   31.245      325
   31.260      327
   31.275      320
   31.290      325
   31.305      326
   31.320      321
   31.335      332
   31.350      346
   31.365      348
   31.380      367
   31.395      365
   31.410      333
   31.425      312
   31.440      304
   31.455      303
   31.470      306
   31.485      309
   31.500      309
   31.515      309
   31.530      320
   31.545      330
   31.560      323
   31.575      320
   31.590      310
   31.605      299
   31.620      318
   31.635      330
   31.650      324
   31.665      304
   31.680      279
   31.695      292
   31.710      317
   31.725      315
   31.740      324
   31.755      338
   31.770      328
   31.785      313
   31.800      314
   31.815      307
   31.830      310
   31.845      318
   31.860      304
   31.875      289
   31.890      304
   31.905      328
   31.920      329
   31.935      321
   31.950      304
   31.965      292
   31.980      304
   31.995      310
   32.010      301
   32.025      292
   32.040      298
   32.055      313
   32.070      311
   32.085      313
   32.100      314
   32.115      300
   32.130      298
   32.145      315
   32.160      326
   32.175      333
   32.190      336
   32.205      324
   32.220      309
   32.235      316
   32.250      317
   32.265      311
   32.280      311
   32.295      316
   32.310      327
   32.325      334
   32.340      322
   32.355      311
   32.370      315
   32.385      311
   32.400      303
   32.415      300
   32.430      290
   32.445      294
   32.460      309
   32.475      306
   32.490      303
   32.505      311
   32.520      310
   32.535      310
   32.550      317
   32.565      314
   32.580      308
   32.595      303
   32.610      300
   32.625      307
   32.640      319
   32.655      317
   32.670      314
   32.685      310
   32.700      313
   32.715      321
   32.730      311
   32.745      295
   32.760      294
   32.775      298
   32.790      298
   32.805      293
   32.820      290
   32.835      306
   32.850      320
   32.865      314
   32.880      303
   32.895      302
   32.910      307
   32.925      301
   32.940      289
   32.955      302
   32.970      317
   32.985      301
   33.000      292
   33.015      294
   33.030      292
   33.045      294
   33.060      295
   33.075      297
   33.090      306
   33.105      312
   33.120      314
   33.135      306
   33.150      307
   33.165      319
   33.180      314
   33.195      306
   33.210      301
   33.225      303
   33.240      304
   33.255      307
   33.270      305
   33.285      303
   33.300      308
   33.315      307
   33.330      301
   33.345      304
   33.360      309
   33.375      310
   33.390      301
   33.405      298
   33.420      310
   33.435      314
   33.450      312
   33.465      304
   33.480      289
   33.495      309
   33.510      326
   33.525      311
   33.540      299
   33.555      297
   33.570      299
   33.585      300
   33.600      299
   33.615      293
   33.630      299
   33.645      301
   33.660      290
   33.675      290
   33.690      286
   33.705      287
   33.720      299
   33.735      287
   33.750      267
   33.765      267
   33.780      303
   33.795      322
   33.810      300
   33.825      297
   33.840      300
   33.855      294
   33.870      285
   33.885      287
   33.900      299
   33.915      295
   33.930      284
   33.945      276
   33.960      288
   33.975      294
   33.990      287
   34.005      304
   34.020      324
   34.035      315
   34.050      299
   34.065      296
   34.080      287
   34.095      288
   34.110      300
   34.125      298
   34.140      295
   34.155      301
   34.170      295
   34.185      299
   34.200      321
   34.215      300
   34.230      291
   34.245      303
   34.260      296
   34.275      296
   34.290      294
   34.305      290
   34.320      303
   34.335      302
   34.350      281
   34.365      275
   34.380      284
   34.395      300
   34.410      285
   34.425      259
   34.440      273
   34.455      290
   34.470      281
   34.485      279
   34.500      270
   34.515      270
   34.530      280
   34.545      292
   34.560      299
   34.575      300
   34.590      284
   34.605      270
   34.620      283
   34.635      278
   34.650      272
   34.665      297
   34.680      298
   34.695      275
   34.710      272
   34.725      277
   34.740      283
   34.755      285
   34.770      289
   34.785      283
   34.800      281
   34.815      286
   34.830      274
   34.845      268
   34.860      269
   34.875      265
   34.890      268
   34.905      273
   34.920      260
   34.935      259
   34.950      268
   34.965      271
   34.980      276
   34.995      288
   35.010      283
   35.025      275
   35.040      277
   35.055      276
   35.070      268
   35.085      260
   35.100      276
   35.115      294
   35.130      296
   35.145      284
   35.160      275
   35.175      280
   35.190      286
   35.205      272
   35.220      266
   35.235      275
   35.250      266
   35.265      249
   35.280      250
   35.295      263
   35.310      281
   35.325      300
   35.340      287
   35.355      259
   35.370      252
   35.385      268
   35.400      278
   35.415      273
   35.430      279
   35.445      285
   35.460      280
   35.475      278
   35.490      279
   35.505      279
   35.520      283
   35.535      276
   35.550      266
   35.565      264
   35.580      273
   35.595      285
   35.610      275
   35.625      264
   35.640      270
   35.655      271
   35.670      280
   35.685      292
   35.700      283
   35.715      258
   35.730      245
   35.745      264
   35.760      265
   35.775      262
   35.790      266
   35.805      248
   35.820      265
   35.835      272
   35.850      264
   35.865      270
   35.880      258
   35.895      257
   35.910      259
   35.925      254
   35.940      244
   35.955      248
   35.970      253
   35.985      252
   36.000      260
   36.015      266
   36.030      251
   36.045      240
   36.060      259
   36.075      270
   36.090      264
   36.105      252
   36.120      257
   36.135      255
   36.150      265
   36.165      268
   36.180      255
   36.195      264
   36.210      272
   36.225      259
   36.240      245
   36.255      247
   36.270      252
   36.285      251
   36.300      245
   36.315      248
   36.330      261
   36.345      258
   36.360      250
   36.375      255
   36.390      261
   36.405      256
   36.420      234
   36.435      223
   36.450      248
   36.465      271
   36.480      269
   36.495      263
   36.510      251
   36.525      243
   36.540      252
   36.555      261
   36.570      263
   36.585      266
