    0.000       10
    0.015       12
    0.030        8
    0.045        9
    0.060       13
    0.075        9
    0.090        8
    0.105        9
    0.120       15
    0.135       11
    0.150       12
    0.165        9
    0.180        8
    0.195        9
    0.210       11
    0.225       10
    0.240        9
    0.255        9
    0.270       11
    0.285       10
    0.300       11
    0.315        9
    0.330        8
    0.345        8
    0.360        7
    0.375        7
    0.390        5
    0.405        7
    0.420       11
    0.435        8
    0.450        7
    0.465        6
    0.480        7
    0.495        9
    0.510       11
    0.525       11
    0.540       11
    0.555       12
    0.570       14
    0.585       15
    0.600       12
    0.615       13
    0.630       16
    0.645       15
    0.660       14
    0.675       15
    0.690       16
    0.705       14
    0.720       13
    0.735       14
    0.750       17
    0.765       18
    0.780       17
    0.795       16
    0.810       12
    0.825       11
    0.840       15
    0.855       17
    0.870       15
    0.885       13
    0.900       14
    0.915       15
    0.930       15
    0.945       14
    0.960       16
    0.975       19
    0.990       14
    1.005       14
    1.020       14
    1.035       19
    1.050       21
    1.065       18
    1.080       17
    1.095       29
    1.110       23
    1.125       18
    1.140       26
    1.155       28
    1.170       38
    1.185       41
    1.200       39
    1.215       35
    1.230       42
    1.245       57
    1.260       56
    1.275       51
    1.290       52
    1.305       50
    1.320       72
    1.335       69
    1.350       67
    1.365       57
    1.380       68
    1.395       74
    1.410       72
    1.425       76
    1.440       85
    1.455       92
    1.470       71
    1.485      105
    1.500       86
    1.515       92
    1.530      100
    1.545       87
    1.560      101
    1.575      105
    1.590       87
    1.605       94
    1.620      109
    1.635      109
    1.650      107
    1.665      113
    1.680      113
    1.695      123
    1.710      112
    1.725      110
    1.740      110
    1.755      131
    1.770      136
    1.785      141
    1.800      135
    1.815      127
    1.830      124
    1.845      122
    1.860      127
    1.875      133
    1.890      129
    1.905      140
    1.920      136
    1.935      136
    1.950      140
    1.965      139
    1.980      133
    1.995      141
    2.010      153
    2.025      163
    2.040      178
    2.055      180
    2.070      199
    2.085      208
    2.100      213
    2.115      223
    2.130      230
    2.145      216
    2.160      215
    2.175      221
    2.190      215
    2.205      233
    2.220      233
    2.235      241
    2.250      264
    2.265      247
    2.280      246
    2.295      266
    2.310      273
    2.325      250
    2.340      228
    2.355      230
    2.370      247
    2.385      271
    2.400      258
    2.415      237
    2.430      212
    2.445      237
    2.460      248
    2.475      253
    2.490      262
    2.505      262
    2.520      261
    2.535      245
    2.550      232
    2.565      230
    2.580      237
    2.595      254
    2.610      254
    2.625      267
    2.640      283
    2.655      281
    2.670      293
    2.685      264
    2.700      267
    2.715      271
    2.730      276
    2.745      259
    2.760      288
    2.775      281
    2.790      260
    2.805      266
    2.820      284
    2.835      313
    2.850      296
    2.865      296
    2.880      286
    2.895      317
    2.910      287
    2.925      285
    2.940      262
    2.955      308
    2.970      314
    2.985      282
    3.000      305
    3.015      284
    3.030      296
    3.045      288
    3.060      324
    3.075      332
    3.090      304
    3.105      298
    3.120      323
    3.135      307
    3.150      311
    3.165      336
    3.180      329
    3.195      330
    3.210      318
    3.225      334
    3.240      333
    3.255      345
    3.270      333
    3.285      297
    3.300      346
    3.315      327
    3.330      330
    3.345      343
    3.360      339
    3.375      350
    3.390      340
    3.405      335
    3.420      340
    3.435      366
    3.450      347
    3.465      327
    3.480      360
    3.495      337
    3.510      344
    3.525      338
    3.540      335
    3.555      363
    3.570      329
    3.585      353
    3.600      388
    3.615      317
    3.630      358
    3.645      387
    3.660      382
    3.675      363
    3.690      374
    3.705      400
    3.720      391
    3.735      355
    3.750      365
    3.765      398
    3.780      393
    3.795      396
    3.810      397
    3.825      414
    3.840      394
    3.855      412
    3.870      399
    3.885      390
    3.900      406
    3.915      439
    3.930      386
    3.945      438
    3.960      474
    3.975      445
    3.990      465
    4.005      446
    4.020      444
    4.035      443
    4.050      459
    4.065      511
    4.080      490
    4.095      469
    4.110      480
    4.125      476
    4.140      520
    4.155      504
    4.170      517
    4.185      500
    4.200      507
    4.215      551
    4.230      503
    4.245      520
    4.260      520
    4.275      543
    4.290      573
    4.305      562
    4.320      547
    4.335      575
    4.350      559
    4.365      583
    4.380      606
    4.395      626
    4.410      613
    4.425      650
    4.440      615
    4.455      600
    4.470      607
    4.485      624
    4.500      642
    4.515      689
    4.530      672
    4.545      698
    4.560      635
    4.575      664
    4.590      729
    4.605      656
    4.620      730
    4.635      682
    4.650      670
    4.665      739
    4.680      747
    4.695      732
    4.710      744
    4.725      742
    4.740      668
    4.755      734
    4.770      735
    4.785      740
    4.800      819
    4.815      802
    4.830      807
    4.845      801
    4.860      852
    4.875      818
    4.890      842
    4.905      844
    4.920      881
    4.935      826
    4.950      878
    4.965      892
    4.980      836
    4.995      859
    5.010      895
    5.025      913
    5.040      935
    5.055      899
    5.070      905
    5.085      907
    5.100      892
    5.115      903
    5.130      918
    5.145      917
    5.160      946
    5.175      960
    5.190      915
    5.205      923
    5.220      928
    5.235      898
    5.250      941
    5.265     1019
    5.280     1006
    5.295     1014
    5.310      979
    5.325      940
    5.340      910
    5.355      960
    5.370      946
    5.385      976
    5.400      922
    5.415      909
    5.430      896
    5.445      936
    5.460      939
    5.475      903
    5.490      974
    5.505      886
    5.520      875
    5.535      891
    5.550      922
    5.565      889
    5.580      870
    5.595      854
    5.610      853
    5.625      845
    5.640      837
    5.655      847
    5.670      852
    5.685      904
    5.700      891
    5.715      855
    5.730      879
    5.745      870
    5.760      860
    5.775      836
    5.790      807
    5.805      833
    5.820      844
    5.835      848
    5.850      835
    5.865      844
    5.880      821
    5.895      799
    5.910      798
    5.925      800
    5.940      821
    5.955      825
    5.970      812
    5.985      814
    6.000      802
    6.015      808
    6.030      808
    6.045      813
    6.060      789
    6.075      749
    6.090      762
    6.105      780
    6.120      784
    6.135      777
    6.150      776
    6.165      752
    6.180      765
    6.195      771
    6.210      760
    6.225      767
    6.240      748
    6.255      741
    6.270      763
    6.285      763
    6.300      774
    6.315      745
    6.330      744
    6.345      741
    6.360      712
    6.375      739
    6.390      742
    6.405      728
    6.420      748
    6.435      728
    6.450      713
    6.465      719
    6.480      696
    6.495      692
    6.510      729
    6.525      761
    6.540      713
    6.555      694
    6.570      729
    6.585      737
    6.600      724
    6.615      721
    6.630      731
    6.645      765
    6.660      742
    6.675      721
    6.690      718
    6.705      704
    6.720      721
    6.735      704
    6.750      700
    6.765      696
    6.780      732
    6.795      723
    6.810      717
    6.825      729
    6.840      717
    6.855      711
    6.870      685
    6.885      682
    6.900      718
    6.915      723
    6.930      747
    6.945      704
    6.960      740
    6.975      719
    6.990      652
    7.005      655
    7.020      704
    7.035      712
    7.050      706
    7.065      689
    7.080      711
    7.095      735
    7.110      739
    7.125      762
    7.140      731
    7.155      673
    7.170      672
    7.185      738
    7.200      740
    7.215      714
    7.230      719
    7.245      692
    7.260      740
    7.275      733
    7.290      772
    7.305      681
    7.320      722
    7.335      717
    7.350      735
    7.365      691
    7.380      677
    7.395      709
    7.410      649
    7.425      674
    7.440      681
    7.455      729
    7.470      698
    7.485      673
    7.500      716
    7.515      705
    7.530      664
    7.545      692
    7.560      678
    7.575      666
    7.590      660
    7.605      688
    7.620      680
    7.635      691
    7.650      688
    7.665      647
    7.680      689
    7.695      698
    7.710      726
    7.725      656
    7.740      639
    7.755      692
    7.770      698
    7.785      677
    7.800      644
    7.815      644
    7.830      655
    7.845      651
    7.860      701
    7.875      677
    7.890      714
    7.905      687
    7.920      655
    7.935      659
    7.950      643
    7.965      648
    7.980      673
    7.995      662
    8.010      668
    8.025      675
    8.040      676
    8.055      653
    8.070      665
    8.085      658
    8.100      709
    8.115      678
    8.130      648
    8.145      649
    8.160      637
    8.175      676
    8.190      701
    8.205      712
    8.220      689
    8.235      641
    8.250      654
    8.265      648
    8.280      631
    8.295      664
    8.310      670
    8.325      635
    8.340      628
    8.355      641
    8.370      664
    8.385      697
    8.400      695
    8.415      668
    8.430      675
    8.445      701
    8.460      662
    8.475      657
    8.490      654
    8.505      611
    8.520      682
    8.535      739
    8.550      706
    8.565      698
    8.580      682
    8.595      680
    8.610      711
    8.625      688
    8.640      666
    8.655      683
    8.670      675
    8.685      652
    8.700      657
    8.715      673
    8.730      681
    8.745      688
    8.760      672
    8.775      681
    8.790      662
    8.805      687
    8.820      739
    8.835      735
    8.850      681
    8.865      675
    8.880      679
    8.895      717
    8.910      708
    8.925      695
    8.940      661
    8.955      655
    8.970      698
    8.985      714
    9.000      715
    9.015      708
    9.030      668
    9.045      686
    9.060      714
    9.075      684
    9.090      681
    9.105      696
    9.120      724
    9.135      723
    9.150      761
    9.165      727
    9.180      704
    9.195      747
    9.210      781
    9.225      740
    9.240      731
    9.255      759
    9.270      720
    9.285      745
    9.300      728
    9.315      733
    9.330      665
    9.345      688
    9.360      748
    9.375      729
    9.390      775
    9.405      741
    9.420      756
    9.435      731
    9.450      759
    9.465      792
    9.480      794
    9.495      710
    9.510      749
    9.525      736
    9.540      743
    9.555      761
    9.570      806
    9.585      786
    9.600      771
    9.615      800
    9.630      797
    9.645      783
    9.660      830
    9.675      815
    9.690      825
    9.705      786
    9.720      818
    9.735      826
    9.750      868
    9.765      824
    9.780      847
    9.795      850
    9.810      855
    9.825      842
    9.840      845
    9.855      883
    9.870      871
    9.885      847
    9.900      848
    9.915      897
    9.930      846
    9.945      849
    9.960      894
    9.975      944
    9.990      895
   10.005      896
   10.020      902
   10.035      912
   10.050      907
   10.065      886
   10.080      863
   10.095      923
   10.110      980
   10.125      967
   10.140      960
   10.155     1015
   10.170      996
   10.185      945
   10.200      969
   10.215      988
   10.230      974
   10.245      950
   10.260     1012
   10.275     1000
   10.290     1018
   10.305     1029
   10.320     1053
   10.335     1038
   10.350     1013
   10.365     1021
   10.380     1058
   10.395     1006
   10.410      975
   10.425     1017
   10.440     1030
   10.455     1038
   10.470     1042
   10.485     1051
   10.500     1067
   10.515     1044
   10.530     1030
   10.545     1057
   10.560     1100
   10.575     1094
   10.590     1069
   10.605     1057
   10.620     1066
   10.635     1084
   10.650     1104
   10.665     1111
   10.680     1091
   10.695     1087
   10.710     1100
   10.725     1111
   10.740     1120
   10.755     1132
   10.770     1151
   10.785     1154
   10.800     1153
   10.815     1176
   10.830     1173
   10.845     1161
   10.860     1161
   10.875     1133
   10.890     1147
   10.905     1192
   10.920     1197
   10.935     1160
   10.950     1152
   10.965     1114
   10.980     1184
   10.995     1202
   11.010     1152
   11.025     1145
   11.040     1087
   11.055     1130
   11.070     1139
   11.085     1089
   11.100     1103
   11.115     1186
   11.130     1170
   11.145     1109
   11.160     1110
   11.175     1125
   11.190     1120
   11.205     1086
   11.220     1122
   11.235     1107
   11.250     1108
   11.265     1093
   11.280     1097
   11.295     1080
   11.310     1042
   11.325     1070
   11.340     1121
   11.355     1103
   11.370     1109
   11.385     1106
   11.400     1004
   11.415     1062
   11.430     1084
   11.445     1115
   11.460     1114
   11.475     1116
   11.490     1033
   11.505     1066
   11.520     1049
   11.535     1018
   11.550     1075
   11.565     1081
   11.580     1060
   11.595      998
   11.610     1053
   11.625      955
   11.640      971
   11.655      984
   11.670      996
   11.685      989
   11.700      965
   11.715     1020
   11.730     1000
   11.745     1005
   11.760      931
   11.775     1002
   11.790     1016
   11.805      981
   11.820      974
   11.835      964
   11.850     1014
   11.865      953
   11.880      964
   11.895     1004
   11.910      929
   11.925      924
   11.940      904
   11.955      928
   11.970      893
   11.985      899
   12.000      901
   12.015      921
   12.030      909
   12.045      886
   12.060      844
   12.075      890
   12.090      995
   12.105      925
   12.120      833
   12.135      894
   12.150      910
   12.165      899
   12.180      900
   12.195      816
   12.210      874
   12.225      925
   12.240      857
   12.255      877
   12.270      837
   12.285      838
   12.300      848
   12.315      827
   12.330      832
   12.345      826
   12.360      836
   12.375      850
   12.390      825
   12.405      821
   12.420      851
   12.435      823
   12.450      851
   12.465      838
   12.480      834
   12.495      827
   12.510      795
   12.525      803
   12.540      813
   12.555      823
   12.570      832
   12.585      846
   12.600      782
   12.615      795
   12.630      798
   12.645      752
   12.660      781
   12.675      808
   12.690      788
   12.705      742
   12.720      751
   12.735      778
   12.750      758
   12.765      780
   12.780      761
   12.795      737
   12.810      762
   12.825      743
   12.840      735
   12.855      753
   12.870      783
   12.885      753
   12.900      715
   12.915      737
   12.930      748
   12.945      761
   12.960      741
   12.975      718
   12.990      707
   13.005      666
   13.020      708
   13.035      738
   13.050      682
   13.065      710
   13.080      734
   13.095      728
   13.110      700
   13.125      712
   13.140      702
   13.155      673
   13.170      675
   13.185      669
   13.200      615
   13.215      639
   13.230      662
   13.245      665
   13.260      667
   13.275      618
   13.290      640
   13.305      621
   13.320      627
   13.335      618
   13.350      626
   13.365      651
   13.380      642
   13.395      622
   13.410      599
   13.425      606
   13.440      613
   13.455      645
   13.470      631
   13.485      601
   13.500      598
   13.515      620
   13.530      626
   13.545      614
   13.560      627
   13.575      605
   13.590      587
   13.605      632
   13.620      610
   13.635      623
   13.650      633
   13.665      634
   13.680      602
   13.695      608
   13.710      638
   13.725      598
   13.740      589
   13.755      591
   13.770      616
   13.785      651
   13.800      655
   13.815      618
   13.830      572
   13.845      616
   13.860      617
   13.875      589
   13.890      594
   13.905      614
   13.920      614
   13.935      607
   13.950      618
   13.965      582
   13.980      545
   13.995      584
   14.010      573
   14.025      583
   14.040      586
   14.055      611
   14.070      566
   14.085      552
   14.100      563
   14.115      558
   14.130      554
   14.145      555
   14.160      545
   14.175      517
   14.190      540
   14.205      540
   14.220      524
   14.235      540
   14.250      531
   14.265      536
   14.280      520
   14.295      534
   14.310      538
   14.325      502
   14.340      534
   14.355      584
   14.370      544
   14.385      532
   14.400      530
   14.415      518
   14.430      529
   14.445      541
   14.460      536
   14.475      525
   14.490      543
   14.505      549
   14.520      520
   14.535      536
   14.550      498
   14.565      497
   14.580      513
   14.595      531
   14.610      531
   14.625      523
   14.640      513
   14.655      545
   14.670      533
   14.685      518
   14.700      516
   14.715      524
   14.730      509
   14.745      514
   14.760      528
   14.775      499
   14.790      503
   14.805      506
   14.820      510
   14.835      475
   14.850      495
   14.865      510
   14.880      505
   14.895      500
   14.910      510
   14.925      528
   14.940      510
   14.955      516
   14.970      493
   14.985      479
   15.000      501
   15.015      526
   15.030      508
   15.045      514
   15.060      488
   15.075      469
   15.090      461
   15.105      463
   15.120      501
   15.135      487
   15.150      484
   15.165      490
   15.180      473
   15.195      456
   15.210      476
   15.225      474
   15.240      488
   15.255      478
   15.270      470
   15.285      485
   15.300      468
   15.315      498
   15.330      457
   15.345      474
   15.360      458
   15.375      464
   15.390      470
   15.405      479
   15.420      449
   15.435      468
   15.450      465
   15.465      442
   15.480      466
   15.495      474
   15.510      477
   15.525      444
   15.540      492
   15.555      462
   15.570      482
   15.585      463
   15.600      425
   15.615      466
   15.630      482
   15.645      459
   15.660      454
   15.675      423
   15.690      472
   15.705      460
   15.720      488
   15.735      491
   15.750      449
   15.765      465
   15.780      450
   15.795      497
   15.810      475
   15.825      500
   15.840      519
   15.855      466
   15.870      460
   15.885      473
   15.900      436
   15.915      432
   15.930      469
   15.945      525
   15.960      443
   15.975      441
   15.990      476
   16.005      458
   16.020      477
   16.035      461
   16.050      448
   16.065      495
   16.080      462
   16.095      422
   16.110      463
   16.125      430
   16.140      440
   16.155      453
   16.170      451
   16.185      445
   16.200      464
   16.215      446
   16.230      475
   16.245      464
   16.260      478
   16.275      451
   16.290      429
   16.305      460
   16.320      454
   16.335      439
   16.350      472
   16.365      498
   16.380      444
   16.395      470
   16.410      459
   16.425      440
   16.440      463
   16.455      471
   16.470      482
   16.485      442
   16.500      441
   16.515      470
   16.530      461
   16.545      473
   16.560      439
   16.575      414
   16.590      424
   16.605      450
   16.620      493
   16.635      515
   16.650      475
   16.665      459
   16.680      460
   16.695      480
   16.710      490
   16.725      483
   16.740      458
   16.755      461
   16.770      456
   16.785      440
   16.800      474
   16.815      481
   16.830      487
   16.845      494
   16.860      475
   16.875      465
   16.890      475
   16.905      480
   16.920      476
   16.935      461
   16.950      461
   16.965      472
   16.980      460
   16.995      454
   17.010      468
   17.025      470
   17.040      466
   17.055      449
   17.070      475
   17.085      450
   17.100      456
   17.115      472
   17.130      499
   17.145      479
   17.160      478
   17.175      465
   17.190      468
   17.205      506
   17.220      504
   17.235      529
   17.250      457
   17.265      443
   17.280      475
   17.295      495
   17.310      518
   17.325      472
   17.340      482
   17.355      536
   17.370      512
   17.385      504
   17.400      474
   17.415      438
   17.430      472
   17.445      515
   17.460      527
   17.475      470
   17.490      434
   17.505      477
   17.520      475
   17.535      463
   17.550      476
   17.565      463
   17.580      506
   17.595      506
   17.610      487
   17.625      513
   17.640      481
   17.655      525
   17.670      502
   17.685      510
   17.700      526
   17.715      492
   17.730      481
   17.745      517
   17.760      496
   17.775      514
   17.790      493
   17.805      503
   17.820      533
   17.835      528
   17.850      502
   17.865      524
   17.880      528
   17.895      528
   17.910      521
   17.925      540
   17.940      525
   17.955      492
   17.970      494
   17.985      517
   18.000      530
   18.015      515
   18.030      511
   18.045      509
   18.060      521
   18.075      532
   18.090      533
   18.105      524
   18.120      507
   18.135      507
   18.150      526
   18.165      525
   18.180      524
   18.195      536
   18.210      549
   18.225      551
   18.240      513
   18.255      486
   18.270      502
   18.285      502
   18.300      513
   18.315      527
   18.330      512
   18.345      546
   18.360      502
   18.375      515
   18.390      490
   18.405      498
   18.420      511
   18.435      533
   18.450      533
   18.465      528
   18.480      536
   18.495      525
   18.510      524
   18.525      491
   18.540      545
   18.555      504
   18.570      564
   18.585      536
   18.600      508
   18.615      499
   18.630      516
   18.645      521
   18.660      540
   18.675      553
   18.690      525
   18.705      495
   18.720      502
   18.735      528
   18.750      545
   18.765      539
   18.780      520
   18.795      521
   18.810      530
   18.825      520
   18.840      540
   18.855      584
   18.870      556
   18.885      540
   18.900      535
   18.915      528
   18.930      542
   18.945      549
   18.960      562
   18.975      572
   18.990      560
   19.005      560
   19.020      559
   19.035      545
   19.050      551
   19.065      555
   19.080      518
   19.095      536
   19.110      570
   19.125      564
   19.140      560
   19.155      550
   19.170      554
   19.185      566
   19.200      558
   19.215      570
   19.230      563
   19.245      544
   19.260      567
   19.275      564
   19.290      543
   19.305      564
   19.320      583
   19.335      577
   19.350      558
   19.365      545
   19.380      562
   19.395      576
   19.410      561
   19.425      546
   19.440      541
   19.455      545
   19.470      565
   19.485      581
   19.500      581
   19.515      574
   19.530      565
   19.545      569
   19.560      567
   19.575      570
   19.590      585
   19.605      581
   19.620      552
   19.635      535
   19.650      545
   19.665      557
   19.680      557
   19.695      556
   19.710      558
   19.725      555
   19.740      549
   19.755      557
   19.770      567
   19.785      557
   19.800      552
   19.815      552
   19.830      546
   19.845      543
   19.860      553
   19.875      565
   19.890      570
   19.905      572
   19.920      578
   19.935      581
   19.950      558
   19.965      554
   19.980      577
   19.995      571
   20.010      567
   20.025      588
   20.040      593
   20.055      582
   20.070      561
   20.085      565
   20.100      574
   20.115      568
   20.130      570
   20.145      544
   20.160      534
   20.175      545
   20.190      553
   20.205      583
   20.220      603
   20.235      581
   20.250      559
   20.265      546
   20.280      543
   20.295      561
   20.310      571
   20.325      558
   20.340      547
   20.355      546
   20.370      558
   20.385      571
   20.400      559
   20.415      543
   20.430      543
   20.445      563
   20.460      566
   20.475      516
   20.490      518
   20.505      533
   20.520      535
   20.535      556
   20.550      553
   20.565      562
   20.580      566
   20.595      542
   20.610      543
   20.625      556
   20.640      544
   20.655      530
   20.670      551
   20.685      556
   20.700      562
   20.715      551
   20.730      532
   20.745      552
   20.760      544
   20.775      546
   20.790      548
   20.805      524
   20.820      518
   20.835      539
   20.850      530
   20.865      531
   20.880      528
   20.895      536
   20.910      539
   20.925      524
   20.940      521
   20.955      518
   20.970      525
   20.985      537
   21.000      573
   21.015      575
   21.030      546
   21.045      557
   21.060      567
   21.075      556
   21.090      558
   21.105      562
   21.120      539
   21.135      517
   21.150      516
   21.165      544
   21.180      543
   21.195      536
   21.210      535
   21.225      526
   21.240      531
   21.255      526
   21.270      526
   21.285      549
   21.300      550
   21.315      531
   21.330      526
   21.345      516
   21.360      503
   21.375      510
   21.390      524
   21.405      531
   21.420      521
   21.435      514
   21.450      510
   21.465      510
   21.480      516
   21.495      525
   21.510      524
   21.525      507
   21.540      512
   21.555      530
   21.570      541
   21.585      546
   21.600      532
   21.615      512
   21.630      519
   21.645      514
   21.660      515
   21.675      528
   21.690      515
   21.705      497
   21.720      512
   21.735      540
   21.750      530
   21.765      533
   21.780      529
   21.795      497
   21.810      503
   21.825      520
   21.840      532
   21.855      533
   21.870      512
   21.885      520
   21.900      528
   21.915      512
   21.930      500
   21.945      495
   21.960      485
   21.975      483
   21.990      498
   22.005      492
   22.020      494
   22.035      510
   22.050      510
   22.065      508
   22.080      519
   22.095      509
   22.110      481
   22.125      480
   22.140      498
   22.155      493
   22.170      495
   22.185      499
   22.200      495
   22.215      502
   22.230      502
   22.245      506
   22.260      503
   22.275      476
   22.290      470
   22.305      494
   22.320      515
   22.335      513
   22.350      481
   22.365      468
   22.380      485
   22.395      486
   22.410      477
   22.425      472
   22.440      480
   22.455      482
   22.470      465
   22.485      471
   22.500      495
   22.515      501
   22.530      477
   22.545      468
   22.560      491
   22.575      509
   22.590      494
   22.605      466
   22.620      445
   22.635      441
   22.650      451
   22.665      466
   22.680      481
   22.695      471
   22.710      464
   22.725      470
   22.740      475
   22.755      473
   22.770      459
   22.785      447
   22.800      463
   22.815      484
   22.830      473
   22.845      451
   22.860      455
   22.875      472
   22.890      481
   22.905      476
   22.920      453
   22.935      451
   22.950      467
   22.965      458
   22.980      440
   22.995      442
   23.010      445
   23.025      446
   23.040      454
   23.055      452
   23.070      452
   23.085      455
   23.100      448
   23.115      424
   23.130      419
   23.145      445
   23.160      459
   23.175      466
   23.190      470
   23.205      465
   23.220      463
   23.235      458
   23.250      460
   23.265      459
   23.280      436
   23.295      428
   23.310      435
   23.325      427
   23.340      419
   23.355      427
   23.370      428
   23.385      425
   23.400      442
   23.415      455
   23.430      459
   23.445      453
   23.460      439
   23.475      464
   23.490      480
   23.505      458
   23.520      446
   23.535      431
   23.550      433
   23.565      448
   23.580      439
   23.595      421
   23.610      402
   23.625      398
   23.640      418
   23.655      430
   23.670      434
   23.685      435
   23.700      428
   23.715      415
   23.730      408
   23.745      403
   23.760      396
   23.775      429
   23.790      461
   23.805      454
   23.820      439
   23.835      418
   23.850      416
   23.865      424
   23.880      428
   23.895      436
   23.910      453
   23.925      439
   23.940      423
   23.955      428
   23.970      401
   23.985      410
   24.000      424
   24.015      409
   24.030      423
   24.045      427
   24.060      414
   24.075      429
   24.090      433
   24.105      421
   24.120      421
   24.135      416
   24.150      400
   24.165      406
   24.180      435
   24.195      449
   24.210      416
   24.225      394
   24.240      401
   24.255      409
   24.270      423
   24.285      418
   24.300      401
   24.315      386
   24.330      376
   24.345      387
   24.360      411
   24.375      420
   24.390      401
   24.405      392
   24.420      401
   24.435      436
   24.450      431
   24.465      383
   24.480      374
   24.495      374
   24.510      367
   24.525      376
   24.540      394
   24.555      385
   24.570      396
   24.585      413
   24.600      416
   24.615      402
   24.630      398
   24.645      397
   24.660      369
   24.675      363
   24.690      371
   24.705      376
   24.720      372
   24.735      371
   24.750      380
   24.765      374
   24.780      355
   24.795      354
   24.810      382
   24.825      396
   24.840      377
   24.855      361
   24.870      379
   24.885      389
   24.900      386
   24.915      387
   24.930      363
   24.945      355
   24.960      377
   24.975      382
   24.990      377
   25.005      368
   25.020      372
   25.035      375
   25.050      373
   25.065      365
   25.080      353
   25.095      350
   25.110      364
   25.125      373
   25.140      346
   25.155      341
   25.170      359
   25.185      375
   25.200      379
   25.215      381
   25.230      394
   25.245      399
   25.260      390
   25.275      364
   25.290      360
   25.305      369
   25.320      361
   25.335      358
   25.350      370
   25.365      368
   25.380      357
   25.395      366
   25.410      394
   25.425      404
   25.440      389
   25.455      377
   25.470      372
   25.485      362
   25.500      362
   25.515      372
   25.530      369
   25.545      363
   25.560      359
   25.575      354
   25.590      358
   25.605      362
   25.620      358
   25.635      349
   25.650      347
   25.665      359
   25.680      357
   25.695      353
   25.710      354
   25.725      343
   25.740      335
   25.755      346
   25.770      349
   25.785      343
   25.800      350
   25.815      351
   25.830      343
   25.845      347
   25.860      357
   25.875      353
   25.890      336
   25.905      333
   25.920      336
   25.935      324
   25.950      334
   25.965      354
   25.980      351
   25.995      334
   26.010      315
   26.025      323
   26.040      346
   26.055      340
   26.070      336
   26.085      347
   26.100      357
   26.115      341
   26.130      323
   26.145      337
   26.160      337
   26.175      325
   26.190      315
   26.205      305
   26.220      307
   26.235      330
   26.250      338
   26.265      320
   26.280      313
   26.295      326
   26.310      344
   26.325      324
   26.340      329
   26.355      332
   26.370      315
   26.385      314
   26.400      324
   26.415      325
   26.430      321
   26.445      328
   26.460      327
   26.475      327
   26.490      320
   26.505      317
   26.520      316
   26.535      314
   26.550      325
   26.565      304
   26.580      301
   26.595      327
   26.610      327
   26.625      329
   26.640      340
   26.655      319
   26.670      304
   26.685      321
   26.700      316
   26.715      305
   26.730      319
   26.745      317
   26.760      323
   26.775      319
   26.790      311
   26.805      338
   26.820      344
   26.835      328
   26.850      320
   26.865      328
   26.880      343
   26.895      330
   26.910      308
   26.925      311
   26.940      321
   26.955      324
   26.970      332
   26.985      332
   27.000      316
   27.015      317
   27.030      331
   27.045      326
   27.060      311
   27.075      331
   27.090      335
   27.105      318
   27.120      318
   27.135      316
   27.150      304
   27.165      298
   27.180      310
   27.195      311
   27.210      306
   27.225      306
   27.240      302
   27.255      302
   27.270      305
   27.285      308
   27.300      322
   27.315      327
   27.330      321
   27.345      322
   27.360      324
   27.375      320
   27.390      322
   27.405      330
   27.420      340
   27.435      345
   27.450      334
   27.465      319
   27.480      312
   27.495      307
   27.510      304
   27.525      310
   27.540      315
   27.555      308
   27.570      303
   27.585      311
   27.600      322
   27.615      318
   27.630      310
   27.645      315
   27.660      325
   27.675      329
   27.690      317
   27.705      311
   27.720      316
   27.735      314
   27.750      317
   27.765      319
   27.780      312
   27.795      319
   27.810      319
   27.825      305
   27.840      303
   27.855      304
   27.870      304
   27.885      310
   27.900      314
   27.915      307
   27.930      280
   27.945      273
   27.960      300
   27.975      309
   27.990      304
   28.005      309
   28.020      303
   28.035      299
   28.050      302
   28.065      296
   28.080      299
   28.095      295
   28.110      295
   28.125      297
   28.140      295
   28.155      301
   28.170      305
   28.185      285
   28.200      278
   28.215      300
   28.230      319
   28.245      299
   28.260      285
   28.275      288
   28.290      276
   28.305      295
   28.320      293
   28.335      288
   28.350      287
   28.365      277
   28.380      303
   28.395      307
   28.410      304
   28.425      294
   28.440      289
   28.455      304
   28.470      308
   28.485      299
   28.500      294
   28.515      307
   28.530      319
   28.545      302
   28.560      284
   28.575      292
   28.590      297
   28.605      304
   28.620      318
   28.635      330
   28.650      320
   28.665      303
   28.680      304
   28.695      316
   28.710      317
   28.725      311
   28.740      295
   28.755      298
   28.770      307
   28.785      297
   28.800      315
   28.815      318
   28.830      291
   28.845      288
   28.860      297
   28.875      304
   28.890      307
   28.905      305
   28.920      297
   28.935      296
   28.950      296
   28.965      297
   28.980      319
   28.995      329
   29.010      313
   29.025      307
   29.040      327
   29.055      332
   29.070      313
   29.085      299
   29.100      286
   29.115      290
   29.130      306
   29.145      304
   29.160      295
   29.175      293
   29.190      293
   29.205      298
   29.220      304
   29.235      306
   29.250      304
   29.265      315
   29.280      329
   29.295      337
   29.310      338
   29.325      324
   29.340      311
   29.355      309
   29.370      304
   29.385      321
   29.400      349
   29.415      335
   29.430      314
   29.445      321
   29.460      312
   29.475      289
   29.490      288
   29.505      309
   29.520      314
   29.535      306
   29.550      309
   29.565      311
   29.580      310
   29.595      312
   29.610      310
   29.625      311
   29.640      314
   29.655      329
   29.670      350
   29.685      337
   29.700      304
   29.715      288
   29.730      289
   29.745      307
   29.760      325
   29.775      312
   29.790      310
   29.805      320
   29.820      304
   29.835      292
   29.850      295
   29.865      302
   29.880      306
   29.895      312
   29.910      320
   29.925      327
   29.940      321
   29.955      315
   29.970      320
   29.985      325
   30.000      321
   30.015      310
   30.030      313
   30.045      319
   30.060      308
   30.075      295
   30.090      287
   30.105      313
   30.120      340
   30.135      341
   30.150      350
   30.165      330
   30.180      311
   30.195      306
   30.210      303
   30.225      303
   30.240      304
   30.255      316
   30.270      317
   30.285      305
   30.300      294
   30.315      308
   30.330      322
   30.345      327
   30.360      332
   30.375      325
   30.390      313
   30.405      322
   30.420      324
   30.435      306
   30.450      307
   30.465      309
   30.480      307
   30.495      323
   30.510      332
   30.525      315
   30.540      316
   30.555      322
   30.570      300
   30.585      310
   30.600      327
   30.615      295
   30.630      292
   30.645      311
   30.660      301
   30.675      306
   30.690      319
   30.705      319
   30.720      306
   30.735      314
   30.750      306
   30.765      302
   30.780      312
   30.795      304
   30.810      317
   30.825      324
   30.840      304
   30.855      292
   30.870      298
   30.885      300
   30.900      292
   30.915      294
   30.930      314
   30.945      327
   30.960      319
   30.975      318
   30.990      322
   31.005      323
   31.020      331
   31.035      328
   31.050      315
   31.065      313
   31.080      312
   31.095      305
   31.110      316
   31.125      328
   31.140      342
   31.155      329
   31.170      314
   31.185      328
   31.200      333
   31.215      335
   31.230      330
   31.245      321
   31.260      319
   31.275      309
   31.290      315
   31.305      319
   31.320      323
   31.335      339
   31.350      335
   31.365      339
   31.380      331
   31.395      329
   31.410      331
   31.425      309
   31.440      306
   31.455      312
   31.470      312
   31.485      314
   31.500      321
   31.515      329
   31.530      338
   31.545      327
   31.560      316
   31.575      322
   31.590      317
   31.605      318
   31.620      332
   31.635      339
   31.650      323
   31.665      305
   31.680      316
   31.695      330
   31.710      326
   31.725      317
   31.740      311
   31.755      303
   31.770      304
   31.785      316
   31.800      317
   31.815      294
   31.830      283
   31.845      305
   31.860      313
   31.875      306
   31.890      315
   31.905      315
   31.920      307
   31.935      311
   31.950      310
   31.965      309
   31.980      322
   31.995      333
   32.010      322
   32.025      306
   32.040      305
   32.055      310
   32.070      326
   32.085      330
   32.100      327
   32.115      321
   32.130      313
   32.145      313
   32.160      315
   32.175      315
   32.190      313
   32.205      311
   32.220      303
   32.235      293
   32.250      288
   32.265      310
   32.280      328
   32.295      339
   32.310      343
   32.325      317
   32.340      303
   32.355      305
   32.370      317
   32.385      321
   32.400      310
   32.415      303
   32.430      300
   32.445      296
   32.460      308
   32.475      310
   32.490      297
   32.505      304
   32.520      302
   32.535      283
   32.550      294
   32.565      304
   32.580      303
   32.595      304
   32.610      300
   32.625      308
   32.640      307
   32.655      291
   32.670      295
   32.685      310
   32.700      322
   32.715      319
   32.730      313
   32.745      320
   32.760      321
   32.775      304
   32.790      295
   32.805      302
   32.820      313
   32.835      309
   32.850      299
   32.865      304
   32.880      298
   32.895      298
   32.910      301
   32.925      295
   32.940      294
   32.955      307
   32.970      318
   32.985      314
   33.000      308
   33.015      306
   33.030      306
   33.045      299
   33.060      303
   33.075      316
   33.090      314
   33.105      303
   33.120      297
   33.135      303
   33.150      310
   33.165      308
   33.180      311
   33.195      320
   33.210      305
   33.225      295
   33.240      296
   33.255      296
   33.270      307
   33.285      309
   33.300      305
   33.315      311
   33.330      309
   33.345      291
   33.360      300
   33.375      322
   33.390      318
   33.405      310
   33.420      297
   33.435      282
   33.450      287
   33.465      301
   33.480      316
   33.495      326
   33.510      313
   33.525      300
   33.540      310
   33.555      320
   33.570      307
   33.585      300
   33.600      315
   33.615      314
   33.630      306
   33.645      295
   33.660      294
   33.675      310
   33.690      319
   33.705      312
   33.720      300
   33.735      311
   33.750      316
   33.765      311
   33.780      312
   33.795      297
   33.810      288
   33.825      294
   33.840      300
   33.855      298
   33.870      294
   33.885      295
   33.900      297
   33.915      295
   33.930      300
   33.945      302
   33.960      302
   33.975      290
   33.990      280
   34.005      282
   34.020      290
   34.035      311
   34.050      296
   34.065      287
   34.080      292
   34.095      284
   34.110      291
   34.125      280
   34.140      268
   34.155      274
   34.170      280
   34.185      278
   34.200      280
   34.215      286
   34.230      289
   34.245      289
   34.260      288
   34.275      295
   34.290      313
   34.305      302
   34.320      290
   34.335      289
   34.350      262
   34.365      263
   34.380      269
   34.395      278
   34.410      265
   34.425      265
   34.440      291
   34.455      273
   34.470      255
   34.485      281
   34.500      284
   34.515      278
   34.530      298
   34.545      301
   34.560      290
   34.575      291
   34.590      276
   34.605      266
   34.620      286
   34.635      278
   34.650      279
   34.665      294
   34.680      286
   34.695      269
   34.710      273
   34.725      293
   34.740      293
   34.755      285
   34.770      294
   34.785      300
   34.800      284
   34.815      269
   34.830      262
   34.845      262
   34.860      259
   34.875      263
   34.890      278
   34.905      284
   34.920      283
   34.935      282
   34.950      264
   34.965      270
   34.980      276
   34.995      279
   35.010      269
   35.025      261
   35.040      278
   35.055      286
   35.070      272
   35.085      256
   35.100      264
   35.115      268
   35.130      266
   35.145      271
   35.160      263
   35.175      258
   35.190      275
   35.205      287
   35.220      286
   35.235      277
   35.250      276
   35.265      280
   35.280      274
   35.295      276
   35.310      289
   35.325      290
   35.340      274
   35.355      253
   35.370      248
   35.385      264
   35.400      286
   35.415      286
   35.430      286
   35.445      289
   35.460      281
   35.475      274
   35.490      276
   35.505      273
   35.520      271
   35.535      276
   35.550      278
   35.565      280
   35.580      279
   35.595      279
   35.610      268
   35.625      259
   35.640      273
   35.655      289
   35.670      285
   35.685      273
   35.700      265
   35.715      268
   35.730      272
   35.745      269
   35.760      270
   35.775      264
   35.790      261
   35.805      256
   35.820      262
   35.835      268
   35.850      257
   35.865      247
   35.880      254
   35.895      246
   35.910      245
   35.925      272
   35.940      256
   35.955      245
   35.970      276
   35.985      267
   36.000      243
   36.015      249
   36.030      249
   36.045      247
   36.060      251
   36.075      259
   36.090      262
   36.105      255
   36.120      265
   36.135      267
   36.150      253
   36.165      237
   36.180      235
   36.195      250
   36.210      250
   36.225      260
   36.240      266
   36.255      251
   36.270      253
   36.285      260
   36.300      258
   36.315      245
   36.330      248
   36.345      258
   36.360      250
   36.375      243
   36.390      238
   36.405      234
   36.420      235
   36.435      244
   36.450      263
   36.465      259
   36.480      242
   36.495      247
   36.510      262
   36.525      266
   36.540      253
   36.555      248
   36.570      247
   36.585      241
