    0.000       11
    0.015       10
    0.030        9
    0.045        9
    0.060       15
    0.075       12
    0.090       11
    0.105        9
    0.120        9
    0.135        8
    0.150        8
    0.165        8
    0.180       10
    0.195        8
    0.210        9
    0.225        8
    0.240       11
    0.255        9
    0.270        8
    0.285        7
    0.300        9
    0.315        8
    0.330        6
    0.345        7
    0.360        6
    0.375        7
    0.390        6
    0.405        4
    0.420        6
    0.435        6
    0.450        6
    0.465        7
    0.480        6
    0.495        7
    0.510        9
    0.525        7
    0.540        8
    0.555        8
    0.570        6
    0.585        6
    0.600        7
    0.615        7
    0.630        7
    0.645        7
    0.660        6
    0.675        8
    0.690        9
    0.705        8
    0.720        7
    0.735        5
    0.750        4
    0.765        6
    0.780        5
    0.795        4
    0.810        5
    0.825        6
    0.840        5
    0.855        4
    0.870        7
    0.885        9
    0.900        9
    0.915       10
    0.930       11
    0.945        8
    0.960       11
    0.975       11
    0.990       10
    1.005       11
    1.020       13
    1.035       15
    1.050       13
    1.065       15
    1.080       12
    1.095       15
    1.110       14
    1.125       15
    1.140       18
    1.155       20
    1.170       19
    1.185       35
    1.200       36
    1.215       36
    1.230       43
    1.245       40
    1.260       39
    1.275       46
    1.290       54
    1.305       52
    1.320       50
    1.335       62
    1.350       51
    1.365       75
    1.380       64
    1.395       80
    1.410       73
    1.425       84
    1.440       78
    1.455       95
    1.470       92
    1.485       83
    1.500       81
    1.515       92
    1.530       95
    1.545       99
    1.560       91
    1.575       95
    1.590      111
    1.605       92
    1.620      108
    1.635       96
    1.650      101
    1.665      100
    1.680      102
    1.695      103
    1.710      103
    1.725      106
    1.740      109
    1.755      119
    1.770      123
    1.785      119
    1.800      124
    1.815      131
    1.830      128
    1.845      142
    1.860      121
    1.875      146
    1.890      150
    1.905      135
    1.920      135
    1.935      138
    1.950      137
    1.965      133
    1.980      145
    1.995      164
    2.010      160
    2.025      146
    2.040      172
    2.055      201
    2.070      199
    2.085      212
    2.100      205
    2.115      211
    2.130      228
    2.145      229
    2.160      234
    2.175      228
    2.190      217
    2.205      231
    2.220      238
    2.235      242
    2.250      233
    2.265      235
    2.280      261
    2.295      254
    2.310      246
    2.325      247
    2.340      234
    2.355      246
    2.370      265
    2.385      269
    2.400      241
    2.415      243
    2.430      257
    2.445      267
    2.460      287
    2.475      278
    2.490      277
    2.505      260
    2.520      239
    2.535      249
    2.550      260
    2.565      254
    2.580      250
    2.595      271
    2.610      259
    2.625      265
    2.640      284
    2.655      274
    2.670      284
    2.685      266
    2.700      270
    2.715      268
    2.730      292
    2.745      287
    2.760      294
    2.775      295
    2.790      277
    2.805      265
    2.820      270
    2.835      303
    2.850      297
    2.865      271
    2.880      286
    2.895      291
    2.910      298
    2.925      290
    2.940      292
    2.955      301
    2.970      289
    2.985      274
    3.000      287
    3.015      285
    3.030      270
    3.045      302
    3.060      294
    3.075      308
    3.090      294
    3.105      324
    3.120      296
    3.135      289
    3.150      318
    3.165      294
    3.180      275
    3.195      291
    3.210      332
    3.225      319
    3.240      330
    3.255      330
    3.270      337
    3.285      306
    3.300      333
    3.315      346
    3.330      342
    3.345      341
    3.360      315
    3.375      319
    3.390      334
    3.405      311
    3.420      304
    3.435      364
    3.450      341
    3.465      336
    3.480      383
    3.495      349
    3.510      318
    3.525      324
    3.540      319
    3.555      334
    3.570      362
    3.585      372
    3.600      352
    3.615      353
    3.630      354
    3.645      349
    3.660      357
    3.675      370
    3.690      381
    3.705      348
    3.720      381
    3.735      350
    3.750      339
    3.765      378
    3.780      409
    3.795      393
    3.810      406
    3.825      380
    3.840      371
    3.855      389
    3.870      378
    3.885      415
    3.900      424
    3.915      417
    3.930      419
    3.945      408
    3.960      453
    3.975      423
    3.990      433
    4.005      434
    4.020      455
    4.035      448
    4.050      422
    4.065      465
    4.080      501
    4.095      476
    4.110      490
    4.125      455
    4.140      522
    4.155      487
    4.170      521
    4.185      530
    4.200      495
    4.215      493
    4.230      517
    4.245      500
    4.260      558
    4.275      525
    4.290      557
    4.305      549
    4.320      547
    4.335      583
    4.350      559
    4.365      578
    4.380      569
    4.395      551
    4.410      581
    4.425      585
    4.440      583
    4.455      621
    4.470      659
    4.485      640
    4.500      626
    4.515      676
    4.530      630
    4.545      681
    4.560      670
    4.575      640
    4.590      709
    4.605      665
    4.620      752
    4.635      708
    4.650      686
    4.665      661
    4.680      715
    4.695      727
    4.710      727
    4.725      722
    4.740      725
    4.755      744
    4.770      735
    4.785      788
    4.800      783
    4.815      721
    4.830      806
    4.845      793
    4.860      849
    4.875      823
    4.890      773
    4.905      785
    4.920      836
    4.935      792
    4.950      867
    4.965      885
    4.980      854
    4.995      875
    5.010      903
    5.025      897
    5.040      877
    5.055      875
    5.070      845
    5.085      895
    5.100      938
    5.115      916
    5.130      935
    5.145      895
    5.160      908
    5.175      852
    5.190      863
    5.205      903
    5.220      853
    5.235      869
    5.250      884
    5.265      886
    5.280      897
    5.295      938
    5.310      950
    5.325      869
    5.340      927
    5.355      936
    5.370      883
    5.385      951
    5.400      911
    5.415      942
    5.430      909
    5.445      896
    5.460      919
    5.475      876
    5.490      882
    5.505      863
    5.520      874
    5.535      859
    5.550      852
    5.565      860
    5.580      888
    5.595      875
    5.610      821
    5.625      860
    5.640      858
    5.655      833
    5.670      815
    5.685      827
    5.700      831
    5.715      825
    5.730      829
    5.745      837
    5.760      830
    5.775      809
    5.790      827
    5.805      879
    5.820      827
    5.835      782
    5.850      790
    5.865      784
    5.880      774
    5.895      800
    5.910      782
    5.925      805
    5.940      818
    5.955      808
    5.970      808
    5.985      829
    6.000      812
    6.015      791
    6.030      820
    6.045      837
    6.060      819
    6.075      763
    6.090      729
    6.105      736
    6.120      737
    6.135      742
    6.150      763
    6.165      752
    6.180      736
    6.195      734
    6.210      734
    6.225      748
    6.240      708
    6.255      709
    6.270      712
    6.285      690
    6.300      732
    6.315      738
    6.330      747
    6.345      748
    6.360      722
    6.375      709
    6.390      699
    6.405      701
    6.420      720
    6.435      764
    6.450      750
    6.465      703
    6.480      690
    6.495      701
    6.510      746
    6.525      746
    6.540      698
    6.555      678
    6.570      665
    6.585      658
    6.600      686
    6.615      708
    6.630      706
    6.645      700
    6.660      641
    6.675      647
    6.690      699
    6.705      690
    6.720      715
    6.735      748
    6.750      725
    6.765      709
    6.780      712
    6.795      696
    6.810      696
    6.825      740
    6.840      758
    6.855      692
    6.870      642
    6.885      677
    6.900      731
    6.915      693
    6.930      687
    6.945      703
    6.960      690
    6.975      724
    6.990      716
    7.005      674
    7.020      643
    7.035      692
    7.050      677
    7.065      651
    7.080      668
    7.095      719
    7.110      739
    7.125      709
    7.140      708
    7.155      699
    7.170      650
    7.185      680
    7.200      683
    7.215      660
    7.230      714
    7.245      738
    7.260      703
    7.275      728
    7.290      745
    7.305      692
    7.320      674
    7.335      661
    7.350      673
    7.365      672
    7.380      656
    7.395      717
    7.410      679
    7.425      638
    7.440      687
    7.455      661
    7.470      671
    7.485      647
    7.500      645
    7.515      686
    7.530      672
    7.545      726
    7.560      696
    7.575      674
    7.590      676
    7.605      715
    7.620      691
    7.635      714
    7.650      666
    7.665      690
    7.680      683
    7.695      627
    7.710      667
    7.725      674
    7.740      678
    7.755      690
    7.770      704
    7.785      648
    7.800      663
    7.815      645
    7.830      699
    7.845      657
    7.860      660
    7.875      701
    7.890      698
    7.905      703
    7.920      676
    7.935      702
    7.950      688
    7.965      670
    7.980      679
    7.995      648
    8.010      635
    8.025      635
    8.040      658
    8.055      671
    8.070      652
    8.085      624
    8.100      640
    8.115      619
    8.130      648
    8.145      662
    8.160      620
    8.175      617
    8.190      663
    8.205      700
    8.220      675
    8.235      649
    8.250      641
    8.265      608
    8.280      618
    8.295      617
    8.310      616
    8.325      645
    8.340      665
    8.355      658
    8.370      651
    8.385      657
    8.400      666
    8.415      649
    8.430      634
    8.445      653
    8.460      655
    8.475      637
    8.490      644
    8.505      659
    8.520      665
    8.535      650
    8.550      654
    8.565      671
    8.580      650
    8.595      642
    8.610      655
    8.625      670
    8.640      672
    8.655      667
    8.670      671
    8.685      665
    8.700      661
    8.715      683
    8.730      701
    8.745      686
    8.760      678
    8.775      662
    8.790      666
    8.805      651
    8.820      654
    8.835      697
    8.850      691
    8.865      683
    8.880      720
    8.895      696
    8.910      683
    8.925      684
    8.940      714
    8.955      714
    8.970      730
    8.985      742
    9.000      681
    9.015      679
    9.030      674
    9.045      689
    9.060      657
    9.075      678
    9.090      652
    9.105      666
    9.120      705
    9.135      751
    9.150      702
    9.165      712
    9.180      725
    9.195      713
    9.210      719
    9.225      752
    9.240      703
    9.255      723
    9.270      718
    9.285      733
    9.300      686
    9.315      678
    9.330      686
    9.345      739
    9.360      722
    9.375      679
    9.390      757
    9.405      773
    9.420      768
    9.435      709
    9.450      783
    9.465      759
    9.480      776
    9.495      801
    9.510      725
    9.525      764
    9.540      743
    9.555      728
    9.570      749
    9.585      739
    9.600      783
    9.615      807
    9.630      838
    9.645      772
    9.660      842
    9.675      789
    9.690      744
    9.705      756
    9.720      807
    9.735      773
    9.750      759
    9.765      812
    9.780      779
    9.795      737
    9.810      825
    9.825      816
    9.840      852
    9.855      838
    9.870      880
    9.885      855
    9.900      810
    9.915      854
    9.930      857
    9.945      843
    9.960      877
    9.975      896
    9.990      887
   10.005      919
   10.020      918
   10.035      959
   10.050      906
   10.065      856
   10.080      875
   10.095      919
   10.110      924
   10.125      905
   10.140      915
   10.155      965
   10.170      955
   10.185      999
   10.200      947
   10.215      952
   10.230      987
   10.245      983
   10.260      983
   10.275      990
   10.290      952
   10.305      964
   10.320      966
   10.335      972
   10.350      978
   10.365      998
   10.380     1041
   10.395     1022
   10.410      980
   10.425     1019
   10.440     1046
   10.455     1004
   10.470      961
   10.485      994
   10.500     1061
   10.515     1061
   10.530     1023
   10.545     1037
   10.560     1080
   10.575     1080
   10.590     1122
   10.605     1122
   10.620     1055
   10.635     1073
   10.650     1108
   10.665     1080
   10.680     1088
   10.695     1074
   10.710     1086
   10.725     1109
   10.740     1092
   10.755     1113
   10.770     1112
   10.785     1105
   10.800     1094
   10.815     1116
   10.830     1187
   10.845     1219
   10.860     1161
   10.875     1168
   10.890     1157
   10.905     1170
   10.920     1179
   10.935     1130
   10.950     1086
   10.965     1128
   10.980     1156
   10.995     1117
   11.010     1130
   11.025     1162
   11.040     1154
   11.055     1113
   11.070     1071
   11.085     1088
   11.100     1128
   11.115     1124
   11.130     1151
   11.145     1106
   11.160     1099
   11.175     1120
   11.190     1105
   11.205     1136
   11.220     1134
   11.235     1093
   11.250     1055
   11.265     1075
   11.280     1087
   11.295     1080
   11.310     1062
   11.325     1090
   11.340     1101
   11.355     1065
   11.370     1132
   11.385     1120
   11.400     1085
   11.415     1052
   11.430     1077
   11.445     1121
   11.460     1006
   11.475     1044
   11.490     1053
   11.505     1057
   11.520     1001
   11.535     1062
   11.550      990
   11.565     1007
   11.580     1010
   11.595     1024
   11.610      985
   11.625     1001
   11.640      987
   11.655      995
   11.670      962
   11.685      981
   11.700      992
   11.715      954
   11.730      974
   11.745      926
   11.760      979
   11.775     1044
   11.790     1019
   11.805      971
   11.820      906
   11.835      908
   11.850      979
   11.865      903
   11.880      937
   11.895      920
   11.910      913
   11.925      963
   11.940      908
   11.955      946
   11.970      960
   11.985      882
   12.000      914
   12.015      941
   12.030      995
   12.045      858
   12.060      880
   12.075      918
   12.090      903
   12.105      949
   12.120      912
   12.135      860
   12.150      874
   12.165      910
   12.180      878
   12.195      847
   12.210      872
   12.225      850
   12.240      818
   12.255      860
   12.270      783
   12.285      822
   12.300      859
   12.315      831
   12.330      813
   12.345      830
   12.360      766
   12.375      862
   12.390      825
   12.405      830
   12.420      759
   12.435      789
   12.450      760
   12.465      832
   12.480      803
   12.495      812
   12.510      814
   12.525      789
   12.540      799
   12.555      767
   12.570      832
   12.585      799
   12.600      791
   12.615      765
   12.630      708
   12.645      749
   12.660      790
   12.675      743
   12.690      740
   12.705      755
   12.720      719
   12.735      727
   12.750      746
   12.765      745
   12.780      787
   12.795      728
   12.810      739
   12.825      717
   12.840      728
   12.855      757
   12.870      738
   12.885      745
   12.900      704
   12.915      728
   12.930      706
   12.945      727
   12.960      730
   12.975      722
   12.990      723
   13.005      730
   13.020      737
   13.035      732
   13.050      697
   13.065      743
   13.080      697
   13.095      687
   13.110      706
   13.125      685
   13.140      662
   13.155      659
   13.170      672
   13.185      698
   13.200      674
   13.215      657
   13.230      646
   13.245      657
   13.260      662
   13.275      631
   13.290      639
   13.305      656
   13.320      650
   13.335      634
   13.350      627
   13.365      650
   13.380      635
   13.395      651
   13.410      618
   13.425      618
   13.440      639
   13.455      608
   13.470      618
   13.485      592
   13.500      602
   13.515      603
   13.530      621
   13.545      605
   13.560      626
   13.575      611
   13.590      591
   13.605      610
   13.620      582
   13.635      601
   13.650      623
   13.665      673
   13.680      643
   13.695      591
   13.710      577
   13.725      609
   13.740      591
   13.755      558
   13.770      563
   13.785      576
   13.800      603
   13.815      585
   13.830      589
   13.845      594
   13.860      589
   13.875      544
   13.890      549
   13.905      577
   13.920      626
   13.935      583
   13.950      587
   13.965      547
   13.980      560
   13.995      567
   14.010      529
   14.025      547
   14.040      548
   14.055      545
   14.070      559
   14.085      560
   14.100      563
   14.115      539
   14.130      553
   14.145      526
   14.160      490
   14.175      539
   14.190      546
   14.205      534
   14.220      544
   14.235      566
   14.250      524
   14.265      514
   14.280      545
   14.295      536
   14.310      510
   14.325      500
   14.340      529
   14.355      527
   14.370      538
   14.385      528
   14.400      538
   14.415      516
   14.430      508
   14.445      503
   14.460      521
   14.475      543
   14.490      546
   14.505      522
   14.520      517
   14.535      530
   14.550      503
   14.565      506
   14.580      551
   14.595      557
   14.610      539
   14.625      536
   14.640      530
   14.655      513
   14.670      519
   14.685      542
   14.700      507
   14.715      500
   14.730      486
   14.745      531
   14.760      507
   14.775      498
   14.790      514
   14.805      483
   14.820      481
   14.835      463
   14.850      478
   14.865      467
   14.880      488
   14.895      505
   14.910      509
   14.925      510
   14.940      501
   14.955      468
   14.970      480
   14.985      497
   15.000      511
   15.015      514
   15.030      504
   15.045      457
   15.060      455
   15.075      463
   15.090      444
   15.105      453
   15.120      456
   15.135      490
   15.150      490
   15.165      477
   15.180      490
   15.195      456
   15.210      466
   15.225      497
   15.240      452
   15.255      438
   15.270      463
   15.285      455
   15.300      462
   15.315      459
   15.330      484
   15.345      452
   15.360      474
   15.375      496
   15.390      457
   15.405      427
   15.420      443
   15.435      456
   15.450      485
   15.465      438
   15.480      427
   15.495      448
   15.510      444
   15.525      438
   15.540      470
   15.555      480
   15.570      443
   15.585      436
   15.600      416
   15.615      441
   15.630      479
   15.645      476
   15.660      452
   15.675      443
   15.690      461
   15.705      468
   15.720      457
   15.735      454
   15.750      455
   15.765      389
   15.780      421
   15.795      434
   15.810      398
   15.825      456
   15.840      477
   15.855      459
   15.870      446
   15.885      437
   15.900      453
   15.915      448
   15.930      443
   15.945      446
   15.960      446
   15.975      424
   15.990      455
   16.005      477
   16.020      463
   16.035      440
   16.050      423
   16.065      415
   16.080      417
   16.095      441
   16.110      436
   16.125      463
   16.140      456
   16.155      429
   16.170      429
   16.185      447
   16.200      448
   16.215      428
   16.230      484
   16.245      492
   16.260      439
   16.275      428
   16.290      458
   16.305      454
   16.320      466
   16.335      441
   16.350      465
   16.365      461
   16.380      423
   16.395      447
   16.410      465
   16.425      467
   16.440      479
   16.455      469
   16.470      484
   16.485      482
   16.500      466
   16.515      504
   16.530      494
   16.545      471
   16.560      479
   16.575      453
   16.590      463
   16.605      468
   16.620      459
   16.635      451
   16.650      447
   16.665      447
   16.680      447
   16.695      479
   16.710      466
   16.725      433
   16.740      434
   16.755      449
   16.770      455
   16.785      474
   16.800      483
   16.815      477
   16.830      457
   16.845      466
   16.860      466
   16.875      438
   16.890      449
   16.905      486
   16.920      476
   16.935      446
   16.950      437
   16.965      463
   16.980      467
   16.995      462
   17.010      474
   17.025      509
   17.040      493
   17.055      475
   17.070      474
   17.085      474
   17.100      466
   17.115      463
   17.130      474
   17.145      465
   17.160      489
   17.175      467
   17.190      484
   17.205      499
   17.220      486
   17.235      494
   17.250      472
   17.265      447
   17.280      471
   17.295      481
   17.310      476
   17.325      455
   17.340      479
   17.355      504
   17.370      498
   17.385      467
   17.400      470
   17.415      463
   17.430      465
   17.445      523
   17.460      447
   17.475      492
   17.490      492
   17.505      448
   17.520      450
   17.535      466
   17.550      489
   17.565      489
   17.580      472
   17.595      512
   17.610      469
   17.625      454
   17.640      457
   17.655      510
   17.670      485
   17.685      507
   17.700      540
   17.715      498
   17.730      491
   17.745      461
   17.760      462
   17.775      491
   17.790      469
   17.805      503
   17.820      484
   17.835      488
   17.850      517
   17.865      516
   17.880      502
   17.895      511
   17.910      484
   17.925      489
   17.940      497
   17.955      476
   17.970      481
   17.985      495
   18.000      512
   18.015      514
   18.030      514
   18.045      511
   18.060      519
   18.075      491
   18.090      462
   18.105      482
   18.120      517
   18.135      504
   18.150      503
   18.165      520
   18.180      520
   18.195      498
   18.210      497
   18.225      475
   18.240      485
   18.255      474
   18.270      499
   18.285      519
   18.300      528
   18.315      493
   18.330      464
   18.345      517
   18.360      538
   18.375      545
   18.390      551
   18.405      486
   18.420      527
   18.435      516
   18.450      514
   18.465      511
   18.480      483
   18.495      496
   18.510      499
   18.525      517
   18.540      502
   18.555      499
   18.570      580
   18.585      524
   18.600      514
   18.615      491
   18.630      499
   18.645      536
   18.660      541
   18.675      531
   18.690      534
   18.705      522
   18.720      519
   18.735      548
   18.750      539
   18.765      518
   18.780      524
   18.795      536
   18.810      541
   18.825      523
   18.840      533
   18.855      574
   18.870      568
   18.885      536
   18.900      532
   18.915      533
   18.930      524
   18.945      523
   18.960      528
   18.975      549
   18.990      554
   19.005      526
   19.020      518
   19.035      537
   19.050      539
   19.065      541
   19.080      573
   19.095      595
   19.110      577
   19.125      546
   19.140      546
   19.155      557
   19.170      560
   19.185      560
   19.200      558
   19.215      550
   19.230      517
   19.245      515
   19.260      537
   19.275      534
   19.290      537
   19.305      539
   19.320      538
   19.335      555
   19.350      547
   19.365      530
   19.380      551
   19.395      557
   19.410      550
   19.425      560
   19.440      551
   19.455      538
   19.470      545
   19.485      560
   19.500      569
   19.515      571
   19.530      572
   19.545      562
   19.560      559
   19.575      560
   19.590      541
   19.605      537
   19.620      563
   19.635      575
   19.650      569
   19.665      559
   19.680      543
   19.695      530
   19.710      537
   19.725      560
   19.740      563
   19.755      556
   19.770      561
   19.785      566
   19.800      568
   19.815      569
   19.830      552
   19.845      526
   19.860      543
   19.875      557
   19.890      547
   19.905      548
   19.920      561
   19.935      567
   19.950      561
   19.965      561
   19.980      564
   19.995      557
   20.010      552
   20.025      561
   20.040      564
   20.055      560
   20.070      557
   20.085      532
   20.100      523
   20.115      553
   20.130      576
   20.145      585
   20.160      568
   20.175      557
   20.190      577
   20.205      568
   20.220      548
   20.235      557
   20.250      562
   20.265      541
   20.280      526
   20.295      520
   20.310      532
   20.325      560
   20.340      568
   20.355      549
   20.370      550
   20.385      557
   20.400      569
   20.415      575
   20.430      544
   20.445      527
   20.460      547
   20.475      575
   20.490      567
   20.505      527
   20.520      504
   20.535      535
   20.550      547
   20.565      512
   20.580      513
   20.595      536
   20.610      560
   20.625      550
   20.640      540
   20.655      540
   20.670      523
   20.685      534
   20.700      548
   20.715      527
   20.730      512
   20.745      509
   20.760      529
   20.775      553
   20.790      523
   20.805      497
   20.820      514
   20.835      543
   20.850      570
   20.865      565
   20.880      540
   20.895      533
   20.910      557
   20.925      539
   20.940      521
   20.955      525
   20.970      519
   20.985      527
   21.000      533
   21.015      527
   21.030      513
   21.045      508
   21.060      531
   21.075      537
   21.090      523
   21.105      519
   21.120      517
   21.135      513
   21.150      498
   21.165      488
   21.180      504
   21.195      502
   21.210      503
   21.225      508
   21.240      518
   21.255      527
   21.270      512
   21.285      515
   21.300      524
   21.315      529
   21.330      508
   21.345      506
   21.360      536
   21.375      534
   21.390      535
   21.405      527
   21.420      506
   21.435      528
   21.450      512
   21.465      475
   21.480      482
   21.495      486
   21.510      509
   21.525      524
   21.540      496
   21.555      484
   21.570      508
   21.585      529
   21.600      525
   21.615      522
   21.630      544
   21.645      552
   21.660      529
   21.675      497
   21.690      479
   21.705      487
   21.720      503
   21.735      493
   21.750      485
   21.765      495
   21.780      493
   21.795      496
   21.810      512
   21.825      525
   21.840      516
   21.855      500
   21.870      497
   21.885      491
   21.900      475
   21.915      470
   21.930      479
   21.945      479
   21.960      480
   21.975      496
   21.990      511
   22.005      514
   22.020      510
   22.035      503
   22.050      501
   22.065      497
   22.080      493
   22.095      486
   22.110      476
   22.125      470
   22.140      456
   22.155      452
   22.170      466
   22.185      483
   22.200      492
   22.215      484
   22.230      469
   22.245      454
   22.260      455
   22.275      475
   22.290      490
   22.305      491
   22.320      481
   22.335      485
   22.350      498
   22.365      504
   22.380      508
   22.395      500
   22.410      493
   22.425      491
   22.440      482
   22.455      476
   22.470      474
   22.485      480
   22.500      482
   22.515      460
   22.530      448
   22.545      464
   22.560      488
   22.575      494
   22.590      475
   22.605      477
   22.620      493
   22.635      491
   22.650      472
   22.665      459
   22.680      463
   22.695      467
   22.710      470
   22.725      470
   22.740      456
   22.755      448
   22.770      448
   22.785      456
   22.800      460
   22.815      452
   22.830      441
   22.845      428
   22.860      427
   22.875      441
   22.890      465
   22.905      480
   22.920      461
   22.935      441
   22.950      453
   22.965      460
   22.980      453
   22.995      451
   23.010      454
   23.025      444
   23.040      440
   23.055      457
   23.070      467
   23.085      477
   23.100      483
   23.115      470
   23.130      460
   23.145      457
   23.160      439
   23.175      438
   23.190      455
   23.205      457
   23.220      456
   23.235      456
   23.250      443
   23.265      419
   23.280      413
   23.295      426
   23.310      439
   23.325      435
   23.340      426
   23.355      428
   23.370      424
   23.385      425
   23.400      446
   23.415      443
   23.430      429
   23.445      432
   23.460      441
   23.475      457
   23.490      438
   23.505      409
   23.520      412
   23.535      416
   23.550      416
   23.565      425
   23.580      421
   23.595      414
   23.610      413
   23.625      404
   23.640      420
   23.655      441
   23.670      439
   23.685      434
   23.700      431
   23.715      421
   23.730      409
   23.745      439
   23.760      469
   23.775      469
   23.790      445
   23.805      414
   23.820      412
   23.835      411
   23.850      403
   23.865      392
   23.880      397
   23.895      439
   23.910      445
   23.925      431
   23.940      424
   23.955      411
   23.970      399
   23.985      400
   24.000      408
   24.015      405
   24.030      397
   24.045      396
   24.060      398
   24.075      418
   24.090      413
   24.105      399
   24.120      396
   24.135      376
   24.150      386
   24.165      410
   24.180      418
   24.195      419
   24.210      390
   24.225      396
   24.240      414
   24.255      394
   24.270      400
   24.285      400
   24.300      379
   24.315      390
   24.330      412
   24.345      406
   24.360      397
   24.375      398
   24.390      384
   24.405      383
   24.420      382
   24.435      387
   24.450      393
   24.465      370
   24.480      363
   24.495      355
   24.510      359
   24.525      383
   24.540      397
   24.555      383
   24.570      378
   24.585      386
   24.600      383
   24.615      366
   24.630      374
   24.645      401
   24.660      392
   24.675      377
   24.690      378
   24.705      379
   24.720      386
   24.735      385
   24.750      385
   24.765      387
   24.780      379
   24.795      375
   24.810      373
   24.825      362
   24.840      363
   24.855      374
   24.870      357
   24.885      359
   24.900      375
   24.915      375
   24.930      382
   24.945      369
   24.960      336
   24.975      347
   24.990      352
   25.005      341
   25.020      342
   25.035      350
   25.050      368
   25.065      375
   25.080      376
   25.095      385
   25.110      377
   25.125      377
   25.140      367
   25.155      339
   25.170      343
   25.185      359
   25.200      365
   25.215      350
   25.230      338
   25.245      336
   25.260      332
   25.275      336
   25.290      342
   25.305      344
   25.320      351
   25.335      353
   25.350      348
   25.365      356
   25.380      367
   25.395      370
   25.410      372
   25.425      370
   25.440      358
   25.455      346
   25.470      338
   25.485      338
   25.500      345
   25.515      347
   25.530      342
   25.545      347
   25.560      350
   25.575      338
   25.590      340
   25.605      349
   25.620      347
   25.635      356
   25.650      373
   25.665      372
   25.680      356
   25.695      342
   25.710      329
   25.725      321
   25.740      324
   25.755      333
   25.770      346
   25.785      363
   25.800      373
   25.815      351
   25.830      339
   25.845      343
   25.860      323
   25.875      320
   25.890      331
   25.905      334
   25.920      344
   25.935      354
   25.950      362
   25.965      352
   25.980      325
   25.995      316
   26.010      311
   26.025      314
   26.040      316
   26.055      317
   26.070      314
   26.085      317
   26.100      338
   26.115      346
   26.130      359
   26.145      366
   26.160      334
   26.175      304
   26.190      321
   26.205      334
   26.220      323
   26.235      322
   26.250      321
   26.265      322
   26.280      324
   26.295      316
   26.310      329
   26.325      333
   26.340      333
   26.355      339
   26.370      323
   26.385      312
   26.400      321
   26.415      323
   26.430      312
   26.445      333
   26.460      336
   26.475      318
   26.490      319
   26.505      316
   26.520      317
   26.535      306
   26.550      302
   26.565      316
   26.580      335
   26.595      340
   26.610      318
   26.625      303
   26.640      299
   26.655      314
   26.670      312
   26.685      301
   26.700      306
   26.715      310
   26.730      305
   26.745      304
   26.760      313
   26.775      321
   26.790      324
   26.805      319
   26.820      311
   26.835      295
   26.850      318
   26.865      342
   26.880      335
   26.895      326
   26.910      306
   26.925      305
   26.940      307
   26.955      296
   26.970      301
   26.985      310
   27.000      310
   27.015      313
   27.030      305
   27.045      293
   27.060      294
   27.075      299
   27.090      309
   27.105      307
   27.120      311
   27.135      326
   27.150      319
   27.165      306
   27.180      296
   27.195      292
   27.210      302
   27.225      305
   27.240      297
   27.255      297
   27.270      290
   27.285      288
   27.300      296
   27.315      310
   27.330      320
   27.345      321
   27.360      310
   27.375      300
   27.390      302
   27.405      301
   27.420      299
   27.435      306
   27.450      313
   27.465      308
   27.480      304
   27.495      314
   27.510      317
   27.525      302
   27.540      295
   27.555      305
   27.570      317
   27.585      325
   27.600      321
   27.615      310
   27.630      311
   27.645      322
   27.660      318
   27.675      298
   27.690      300
   27.705      311
   27.720      305
   27.735      311
   27.750      320
   27.765      307
   27.780      284
   27.795      282
   27.810      294
   27.825      310
   27.840      316
   27.855      312
   27.870      317
   27.885      311
   27.900      316
   27.915      319
   27.930      311
   27.945      308
   27.960      304
   27.975      303
   27.990      307
   28.005      308
   28.020      325
   28.035      318
   28.050      293
   28.065      306
   28.080      311
   28.095      303
   28.110      305
   28.125      311
   28.140      308
   28.155      304
   28.170      295
   28.185      303
   28.200      329
   28.215      335
   28.230      303
   28.245      291
   28.260      307
   28.275      302
   28.290      287
   28.305      313
   28.320      324
   28.335      318
   28.350      309
   28.365      298
   28.380      308
   28.395      318
   28.410      318
   28.425      318
   28.440      312
   28.455      291
   28.470      296
   28.485      303
   28.500      296
   28.515      307
   28.530      318
   28.545      314
   28.560      332
   28.575      328
   28.590      294
   28.605      287
   28.620      294
   28.635      289
   28.650      280
   28.665      291
   28.680      288
   28.695      279
   28.710      290
   28.725      287
   28.740      296
   28.755      320
   28.770      301
   28.785      292
   28.800      305
   28.815      305
   28.830      301
   28.845      295
   28.860      287
   28.875      292
   28.890      303
   28.905      299
   28.920      291
   28.935      306
   28.950      321
   28.965      318
   28.980      310
   28.995      312
   29.010      307
   29.025      309
   29.040      314
   29.055      304
   29.070      301
   29.085      303
   29.100      311
   29.115      317
   29.130      296
   29.145      290
   29.160      311
   29.175      306
   29.190      281
   29.205      283
   29.220      311
   29.235      325
   29.250      316
   29.265      311
   29.280      309
   29.295      307
   29.310      318
   29.325      329
   29.340      309
   29.355      281
   29.370      279
   29.385      289
   29.400      299
   29.415      295
   29.430      282
   29.445      281
   29.460      291
   29.475      305
   29.490      309
   29.505      312
   29.520      328
   29.535      327
   29.550      306
   29.565      297
   29.580      298
   29.595      296
   29.610      293
   29.625      303
   29.640      324
   29.655      318
   29.670      306
   29.685      315
   29.700      311
   29.715      313
   29.730      321
   29.745      323
   29.760      321
   29.775      305
   29.790      301
   29.805      309
   29.820      306
   29.835      306
   29.850      310
   29.865      307
   29.880      307
   29.895      310
   29.910      309
   29.925      305
   29.940      295
   29.955      297
   29.970      316
   29.985      328
   30.000      324
   30.015      310
   30.030      298
   30.045      302
   30.060      309
   30.075      316
   30.090      312
   30.105      311
   30.120      315
   30.135      303
   30.150      290
   30.165      286
   30.180      302
   30.195      322
   30.210      309
   30.225      303
   30.240      311
   30.255      308
   30.270      321
   30.285      329
   30.300      316
   30.315      312
   30.330      299
   30.345      285
   30.360      289
   30.375      304
   30.390      314
   30.405      308
   30.420      301
   30.435      298
   30.450      308
   30.465      313
   30.480      302
   30.495      309
   30.510      337
   30.525      332
   30.540      335
   30.555      322
   30.570      310
   30.585      316
   30.600      312
   30.615      316
   30.630      312
   30.645      324
   30.660      323
   30.675      303
   30.690      314
   30.705      317
   30.720      317
   30.735      314
   30.750      312
   30.765      321
   30.780      328
   30.795      320
   30.810      310
   30.825      332
   30.840      328
   30.855      311
   30.870      321
   30.885      324
   30.900      330
   30.915      331
   30.930      302
   30.945      292
   30.960      313
   30.975      330
   30.990      317
   31.005      312
   31.020      330
   31.035      333
   31.050      331
   31.065      315
   31.080      305
   31.095      326
   31.110      320
   31.125      312
   31.140      320
   31.155      321
   31.170      324
   31.185      325
   31.200      334
   31.215      326
   31.230      310
   31.245      307
   31.260      313
   31.275      329
   31.290      330
   31.305      322
   31.320      312
   31.335      309
   31.350      321
   31.365      327
   31.380      326
   31.395      326
   31.410      309
   31.425      297
   31.440      319
   31.455      319
   31.470      312
   31.485      310
   31.500      293
   31.515      287
   31.530      304
   31.545      320
   31.560      315
   31.575      299
   31.590      311
   31.605      333
   31.620      327
   31.635      317
   31.650      314
   31.665      308
   31.680      309
   31.695      307
   31.710      304
   31.725      303
   31.740      318
   31.755      325
   31.770      309
   31.785      302
   31.800      314
   31.815      321
   31.830      309
   31.845      309
   31.860      317
   31.875      311
   31.890      307
   31.905      298
   31.920      290
   31.935      293
   31.950      308
   31.965      308
   31.980      296
   31.995      291
   32.010      295
   32.025      306
   32.040      315
   32.055      321
   32.070      323
   32.085      309
   32.100      296
   32.115      301
   32.130      306
   32.145      311
   32.160      314
   32.175      303
   32.190      305
   32.205      308
   32.220      304
   32.235      315
   32.250      327
   32.265      323
   32.280      315
   32.295      317
   32.310      329
   32.325      340
   32.340      335
   32.355      326
   32.370      333
   32.385      320
   32.400      300
   32.415      301
   32.430      303
   32.445      294
   32.460      296
   32.475      301
   32.490      311
   32.505      333
   32.520      340
   32.535      325
   32.550      300
   32.565      296
   32.580      314
   32.595      318
   32.610      316
   32.625      322
   32.640      317
   32.655      310
   32.670      320
   32.685      326
   32.700      323
   32.715      310
   32.730      296
   32.745      309
   32.760      328
   32.775      327
   32.790      321
   32.805      307
   32.820      307
   32.835      312
   32.850      311
   32.865      308
   32.880      297
   32.895      293
   32.910      299
   32.925      302
   32.940      314
   32.955      317
   32.970      323
   32.985      338
   33.000      327
   33.015      314
   33.030      304
   33.045      286
   33.060      277
   33.075      284
   33.090      293
   33.105      305
   33.120      315
   33.135      310
   33.150      308
   33.165      321
   33.180      332
   33.195      326
   33.210      303
   33.225      290
   33.240      297
   33.255      302
   33.270      303
   33.285      314
   33.300      315
   33.315      301
   33.330      290
   33.345      282
   33.360      292
   33.375      296
   33.390      289
   33.405      285
   33.420      271
   33.435      272
   33.450      281
   33.465      283
   33.480      305
   33.495      320
   33.510      306
   33.525      292
   33.540      292
   33.555      300
   33.570      307
   33.585      298
   33.600      290
   33.615      296
   33.630      310
   33.645      298
   33.660      287
   33.675      291
   33.690      306
   33.705      313
   33.720      297
   33.735      284
   33.750      289
   33.765      300
   33.780      302
   33.795      311
   33.810      316
   33.825      303
   33.840      298
   33.855      297
   33.870      302
   33.885      302
   33.900      280
   33.915      280
   33.930      292
   33.945      295
   33.960      301
   33.975      309
   33.990      318
   34.005      318
   34.020      289
   34.035      277
   34.050      286
   34.065      285
   34.080      280
   34.095      283
   34.110      288
   34.125      285
   34.140      284
   34.155      273
   34.170      263
   34.185      278
   34.200      299
   34.215      310
   34.230      306
   34.245      311
   34.260      302
   34.275      288
   34.290      287
   34.305      282
   34.320      295
   34.335      303
   34.350      278
   34.365      277
   34.380      285
   34.395      282
   34.410      283
   34.425      278
   34.440      260
   34.455      261
   34.470      280
   34.485      288
   34.500      300
   34.515      314
   34.530      292
   34.545      284
   34.560      295
   34.575      270
   34.590      262
   34.605      271
   34.620      279
   34.635      284
   34.650      279
   34.665      277
   34.680      270
   34.695      268
   34.710      286
   34.725      290
   34.740      274
   34.755      271
   34.770      291
   34.785      284
   34.800      265
   34.815      266
   34.830      265
   34.845      266
   34.860      276
   34.875      265
   34.890      254
   34.905      254
   34.920      254
   34.935      269
   34.950      290
   34.965      284
   34.980      269
   34.995      272
   35.010      273
   35.025      279
   35.040      275
   35.055      279
   35.070      278
   35.085      274
   35.100      280
   35.115      278
   35.130      281
   35.145      277
   35.160      259
   35.175      260
   35.190      278
   35.205      265
   35.220      254
   35.235      257
   35.250      262
   35.265      278
   35.280      289
   35.295      282
   35.310      268
   35.325      260
   35.340      267
   35.355      264
   35.370      252
   35.385      270
   35.400      280
   35.415      275
   35.430      273
   35.445      270
   35.460      268
   35.475      268
   35.490      266
   35.505      266
   35.520      265
   35.535      258
   35.550      247
   35.565      242
   35.580      249
   35.595      251
   35.610      253
   35.625      262
   35.640      262
   35.655      256
   35.670      253
   35.685      255
   35.700      251
   35.715      248
   35.730      263
   35.745      274
   35.760      275
   35.775      265
   35.790      249
   35.805      240
   35.820      252
   35.835      260
   35.850      250
   35.865      252
   35.880      252
   35.895      246
   35.910      249
   35.925      244
   35.940      237
   35.955      253
   35.970      268
   35.985      268
   36.000      271
   36.015      262
   36.030      241
   36.045      236
   36.060      247
   36.075      263
   36.090      266
   36.105      262
   36.120      267
   36.135      259
   36.150      244
   36.165      251
   36.180      257
   36.195      248
   36.210      248
   36.225      226
   36.240      225
   36.255      258
   36.270      268
   36.285      258
   36.300      269
   36.315      261
   36.330      253
   36.345      257
   36.360      248
   36.375      246
   36.390      263
   36.405      264
   36.420      254
   36.435      255
   36.450      253
   36.465      253
   36.480      253
   36.495      258
   36.510      256
   36.525      244
   36.540      236
   36.555      230
   36.570      234
   36.585      245
