    0.000        6
    0.015        8
    0.030        5
    0.045        7
    0.060        7
    0.075        5
    0.090        4
    0.105        5
    0.120        6
    0.135        6
    0.150        6
    0.165        4
    0.180        3
    0.195        4
    0.210        6
    0.225        8
    0.240        7
    0.255        8
    0.270        8
    0.285        9
    0.300        7
    0.315        7
    0.330       11
    0.345        9
    0.360        8
    0.375        9
    0.390       11
    0.405       11
    0.420        8
    0.435        9
    0.450       11
    0.465       11
    0.480        9
    0.495       12
    0.510       10
    0.525        9
    0.540        6
    0.555        5
    0.570        4
    0.585        8
    0.600        9
    0.615        7
    0.630        7
    0.645        9
    0.660       10
    0.675       10
    0.690        9
    0.705       12
    0.720       13
    0.735       11
    0.750       10
    0.765        9
    0.780        9
    0.795        7
    0.810        7
    0.825        8
    0.840        7
    0.855        8
    0.870       11
    0.885       11
    0.900       12
    0.915       10
    0.930        8
    0.945        7
    0.960        7
    0.975        8
    0.990        8
    1.005       12
    1.020       14
    1.035       16
    1.050       13
    1.065       16
    1.080       18
    1.095       14
    1.110       19
    1.125       23
    1.140       24
    1.155       26
    1.170       28
    1.185       31
    1.200       38
    1.215       49
    1.230       47
    1.245       52
    1.260       49
    1.275       44
    1.290       49
    1.305       71
    1.320       63
    1.335       73
    1.350       59
    1.365       64
    1.380       75
    1.395       68
    1.410       75
    1.425       81
    1.440       72
    1.455       70
    1.470       88
    1.485       87
    1.500       96
    1.515       83
    1.530      101
    1.545      106
    1.560      115
    1.575      108
    1.590       96
    1.605      121
    1.620      117
    1.635      114
    1.650      117
    1.665      109
    1.680      107
    1.695      102
    1.710      100
    1.725      117
    1.740      119
    1.755      127
    1.770      130
    1.785      127
    1.800      117
    1.815      115
    1.830      109
    1.845      128
    1.860      135
    1.875      121
    1.890      122
    1.905      132
    1.920      127
    1.935      125
    1.950      131
    1.965      124
    1.980      134
    1.995      141
    2.010      134
    2.025      135
    2.040      138
    2.055      151
    2.070      155
    2.085      171
    2.100      175
    2.115      169
    2.130      188
    2.145      187
    2.160      173
    2.175      178
    2.190      174
    2.205      184
    2.220      193
    2.235      185
    2.250      180
    2.265      192
    2.280      190
    2.295      189
    2.310      189
    2.325      189
    2.340      204
    2.355      208
    2.370      209
    2.385      192
    2.400      182
    2.415      188
    2.430      192
    2.445      193
    2.460      204
    2.475      195
    2.490      195
    2.505      199
    2.520      212
    2.535      205
    2.550      186
    2.565      182
    2.580      192
    2.595      206
    2.610      191
    2.625      221
    2.640      217
    2.655      217
    2.670      212
    2.685      200
    2.700      204
    2.715      207
    2.730      217
    2.745      231
    2.760      212
    2.775      221
    2.790      222
    2.805      212
    2.820      211
    2.835      229
    2.850      222
    2.865      199
    2.880      206
    2.895      212
    2.910      205
    2.925      217
    2.940      230
    2.955      218
    2.970      230
    2.985      234
    3.000      211
    3.015      221
    3.030      216
    3.045      222
    3.060      213
    3.075      222
    3.090      210
    3.105      236
    3.120      236
    3.135      231
    3.150      246
    3.165      226
    3.180      218
    3.195      221
    3.210      218
    3.225      226
    3.240      205
    3.255      237
    3.270      224
    3.285      214
    3.300      255
    3.315      231
    3.330      231
    3.345      247
    3.360      230
    3.375      224
    3.390      252
    3.405      250
    3.420      243
    3.435      263
    3.450      241
    3.465      265
    3.480      260
    3.495      238
    3.510      244
    3.525      255
    3.540      253
    3.555      235
    3.570      259
    3.585      215
    3.600      243
    3.615      227
    3.630      207
    3.645      200
    3.660      214
    3.675      235
    3.690      207
    3.705      243
    3.720      250
    3.735      220
    3.750      237
    3.765      252
    3.780      229
    3.795      232
    3.810      221
    3.825      224
    3.840      221
    3.855      216
    3.870      212
    3.885      246
    3.900      225
    3.915      237
    3.930      238
    3.945      227
    3.960      239
    3.975      205
    3.990      238
    4.005      242
    4.020      239
    4.035      225
    4.050      251
    4.065      232
    4.080      236
    4.095      239
    4.110      227
    4.125      261
    4.140      243
    4.155      251
    4.170      218
    4.185      257
    4.200      246
    4.215      247
    4.230      255
    4.245      245
    4.260      265
    4.275      258
    4.290      283
    4.305      278
    4.320      240
    4.335      265
    4.350      247
    4.365      228
    4.380      258
    4.395      262
    4.410      227
    4.425      246
    4.440      277
    4.455      276
    4.470      290
    4.485      274
    4.500      283
    4.515      256
    4.530      273
    4.545      288
    4.560      280
    4.575      277
    4.590      296
    4.605      317
    4.620      307
    4.635      313
    4.650      330
    4.665      320
    4.680      344
    4.695      336
    4.710      336
    4.725      371
    4.740      397
    4.755      418
    4.770      432
    4.785      484
    4.800      466
    4.815      414
    4.830      420
    4.845      378
    4.860      438
    4.875      426
    4.890      361
    4.905      369
    4.920      441
    4.935      421
    4.950      434
    4.965      457
    4.980      452
    4.995      488
    5.010      509
    5.025      534
    5.040      536
    5.055      585
    5.070      576
    5.085      609
    5.100      655
    5.115      660
    5.130      701
    5.145      666
    5.160      742
    5.175      822
    5.190      752
    5.205      854
    5.220      837
    5.235      929
    5.250      967
    5.265     1001
    5.280     1084
    5.295     1172
    5.310     1278
    5.325     1300
    5.340     1521
    5.355     1778
    5.370     1963
    5.385     2450
    5.400     2608
    5.415     2591
    5.430     2284
    5.445     1612
    5.460      957
    5.475      640
    5.490      509
    5.505      433
    5.520      449
    5.535      416
    5.550      407
    5.565      427
    5.580      410
    5.595      422
    5.610      443
    5.625      461
    5.640      483
    5.655      485
    5.670      492
    5.685      539
    5.700      550
    5.715      594
    5.730      606
    5.745      623
    5.760      655
    5.775      697
    5.790      738
    5.805      832
    5.820      881
    5.835      867
    5.850      935
    5.865      996
    5.880     1082
    5.895     1188
    5.910     1352
    5.925     1545
    5.940     1724
    5.955     1851
    5.970     1860
    5.985     1780
    6.000     1640
    6.015     1380
    6.030     1203
    6.045     1174
    6.060     1190
    6.075     1234
    6.090     1281
    6.105     1352
    6.120     1453
    6.135     1560
    6.150     1681
    6.165     1719
    6.180     1817
    6.195     1982
    6.210     2137
    6.225     2366
    6.240     2685
    6.255     3398
    6.270     4110
    6.285     4690
    6.300     4851
    6.315     4236
    6.330     3226
    6.345     2100
    6.360     1234
    6.375      791
    6.390      577
    6.405      462
    6.420      416
    6.435      398
    6.450      362
    6.465      325
    6.480      300
    6.495      315
    6.510      299
    6.525      274
    6.540      277
    6.555      274
    6.570      285
    6.585      286
    6.600      299
    6.615      307
    6.630      305
    6.645      296
    6.660      284
    6.675      308
    6.690      297
    6.705      300
    6.720      309
    6.735      283
    6.750      300
    6.765      317
    6.780      298
    6.795      314
    6.810      308
    6.825      306
    6.840      310
    6.855      323
    6.870      316
    6.885      347
    6.900      362
    6.915      357
    6.930      357
    6.945      352
    6.960      356
    6.975      368
    6.990      346
    7.005      343
    7.020      385
    7.035      400
    7.050      458
    7.065      464
    7.080      547
    7.095      541
    7.110      516
    7.125      453
    7.140      423
    7.155      417
    7.170      428
    7.185      452
    7.200      456
    7.215      485
    7.230      483
    7.245      448
    7.260      431
    7.275      352
    7.290      365
    7.305      310
    7.320      327
    7.335      301
    7.350      279
    7.365      317
    7.380      284
    7.395      292
    7.410      275
    7.425      283
    7.440      263
    7.455      285
    7.470      290
    7.485      279
    7.500      306
    7.515      297
    7.530      289
    7.545      264
    7.560      274
    7.575      338
    7.590      323
    7.605      311
    7.620      255
    7.635      307
    7.650      282
    7.665      311
    7.680      306
    7.695      307
    7.710      355
    7.725      317
    7.740      319
    7.755      321
    7.770      339
    7.785      344
    7.800      369
    7.815      390
    7.830      408
    7.845      430
    7.860      439
    7.875      474
    7.890      481
    7.905      507
    7.920      513
    7.935      551
    7.950      542
    7.965      577
    7.980      649
    7.995      645
    8.010      653
    8.025      737
    8.040      802
    8.055      873
    8.070      915
    8.085      946
    8.100     1041
    8.115     1139
    8.130     1298
    8.145     1543
    8.160     1774
    8.175     2055
    8.190     2145
    8.205     1967
    8.220     1612
    8.235     1182
    8.250      845
    8.265      595
    8.280      460
    8.295      407
    8.310      386
    8.325      383
    8.340      378
    8.355      344
    8.370      341
    8.385      348
    8.400      355
    8.415      367
    8.430      357
    8.445      361
    8.460      349
    8.475      335
    8.490      365
    8.505      386
    8.520      406
    8.535      409
    8.550      393
    8.565      413
    8.580      406
    8.595      374
    8.610      357
    8.625      343
    8.640      342
    8.655      326
    8.670      316
    8.685      325
    8.700      339
    8.715      337
    8.730      315
    8.745      321
    8.760      322
    8.775      313
    8.790      318
    8.805      324
    8.820      323
    8.835      320
    8.850      328
    8.865      302
    8.880      293
    8.895      306
    8.910      317
    8.925      321
    8.940      313
    8.955      311
    8.970      320
    8.985      334
    9.000      344
    9.015      366
    9.030      363
    9.045      360
    9.060      349
    9.075      376
    9.090      356
    9.105      375
    9.120      397
    9.135      450
    9.150      473
    9.165      468
    9.180      449
    9.195      521
    9.210      563
    9.225      622
    9.240      624
    9.255      653
    9.270      649
    9.285      673
    9.300      735
    9.315      826
    9.330      860
    9.345      997
    9.360     1087
    9.375     1137
    9.390     1282
    9.405     1386
    9.420     1519
    9.435     1715
    9.450     2028
    9.465     2311
    9.480     2606
    9.495     2788
    9.510     2699
    9.525     2400
    9.540     2190
    9.555     1923
    9.570     1774
    9.585     1847
    9.600     1843
    9.615     1682
    9.630     1375
    9.645      907
    9.660      680
    9.675      479
    9.690      464
    9.705      431
    9.720      385
    9.735      419
    9.750      399
    9.765      362
    9.780      358
    9.795      377
    9.810      383
    9.825      406
    9.840      380
    9.855      396
    9.870      403
    9.885      429
    9.900      438
    9.915      439
    9.930      414
    9.945      449
    9.960      488
    9.975      502
    9.990      564
   10.005      551
   10.020      547
   10.035      589
   10.050      644
   10.065      622
   10.080      721
   10.095      798
   10.110      830
   10.125      909
   10.140      975
   10.155     1043
   10.170      971
   10.185      946
   10.200      939
   10.215     1010
   10.230     1126
   10.245     1134
   10.260     1101
   10.275      975
   10.290      772
   10.305      643
   10.320      531
   10.335      486
   10.350      463
   10.365      501
   10.380      502
   10.395      483
   10.410      481
   10.425      520
   10.440      552
   10.455      580
   10.470      613
   10.485      613
   10.500      635
   10.515      694
   10.530      762
   10.545      849
   10.560      901
   10.575     1038
   10.590     1240
   10.605     1378
   10.620     1450
   10.635     1584
   10.650     1771
   10.665     1969
   10.680     2199
   10.695     2484
   10.710     2850
   10.725     3172
   10.740     3569
   10.755     4044
   10.770     4528
   10.785     5383
   10.800     6711
   10.815     8093
   10.830     9309
   10.845    10025
   10.860     9491
   10.875     7942
   10.890     5918
   10.905     4035
   10.920     2852
   10.935     2238
   10.950     2072
   10.965     2128
   10.980     2302
   10.995     2540
   11.010     2634
   11.025     2583
   11.040     2287
   11.055     1869
   11.070     1384
   11.085      977
   11.100      760
   11.115      626
   11.130      570
   11.145      518
   11.160      474
   11.175      457
   11.190      451
   11.205      439
   11.220      411
   11.235      403
   11.250      395
   11.265      381
   11.280      375
   11.295      382
   11.310      374
   11.325      397
   11.340      406
   11.355      407
   11.370      458
   11.385      503
   11.400      499
   11.415      465
   11.430      454
   11.445      483
   11.460      439
   11.475      423
   11.490      434
   11.505      467
   11.520      475
   11.535      506
   11.550      499
   11.565      536
   11.580      565
   11.595      585
   11.610      650
   11.625      710
   11.640      794
   11.655      892
   11.670      938
   11.685      941
   11.700      981
   11.715     1069
   11.730     1204
   11.745     1296
   11.760     1385
   11.775     1520
   11.790     1708
   11.805     1956
   11.820     2217
   11.835     2678
   11.850     2892
   11.865     3075
   11.880     3080
   11.895     3087
   11.910     3091
   11.925     3181
   11.940     3025
   11.955     3246
   11.970     3015
   11.985     2689
   12.000     2355
   12.015     1836
   12.030     1324
   12.045      896
   12.060      730
   12.075      578
   12.090      501
   12.105      457
   12.120      422
   12.135      413
   12.150      425
   12.165      393
   12.180      422
   12.195      352
   12.210      386
   12.225      375
   12.240      412
   12.255      404
   12.270      398
   12.285      396
   12.300      453
   12.315      464
   12.330      483
   12.345      562
   12.360      589
   12.375      598
   12.390      647
   12.405      668
   12.420      642
   12.435      636
   12.450      645
   12.465      612
   12.480      603
   12.495      604
   12.510      668
   12.525      726
   12.540      833
   12.555      925
   12.570      981
   12.585     1081
   12.600     1252
   12.615     1432
   12.630     1464
   12.645     1426
   12.660     1264
   12.675     1061
   12.690      837
   12.705      704
   12.720      613
   12.735      537
   12.750      486
   12.765      518
   12.780      539
   12.795      535
   12.810      555
   12.825      520
   12.840      494
   12.855      458
   12.870      425
   12.885      389
   12.900      407
   12.915      407
   12.930      414
   12.945      460
   12.960      456
   12.975      483
   12.990      512
   13.005      563
   13.020      580
   13.035      711
   13.050      731
   13.065      852
   13.080      968
   13.095     1045
   13.110     1107
   13.125     1146
   13.140     1080
   13.155      872
   13.170      720
   13.185      612
   13.200      494
   13.215      430
   13.230      387
   13.245      357
   13.260      338
   13.275      307
   13.290      317
   13.305      307
   13.320      328
   13.335      334
   13.350      333
   13.365      359
   13.380      367
   13.395      377
   13.410      380
   13.425      417
   13.440      420
   13.455      407
   13.470      436
   13.485      401
   13.500      366
   13.515      341
   13.530      327
   13.545      314
   13.560      301
   13.575      282
   13.590      274
   13.605      298
   13.620      298
   13.635      301
   13.650      306
   13.665      338
   13.680      331
   13.695      316
   13.710      314
   13.725      300
   13.740      279
   13.755      264
   13.770      256
   13.785      256
   13.800      293
   13.815      304
   13.830      278
   13.845      286
   13.860      266
   13.875      254
   13.890      277
   13.905      269
   13.920      265
   13.935      282
   13.950      279
   13.965      293
   13.980      286
   13.995      293
   14.010      306
   14.025      308
   14.040      309
   14.055      338
   14.070      342
   14.085      360
   14.100      385
   14.115      415
   14.130      441
   14.145      508
   14.160      544
   14.175      581
   14.190      639
   14.205      761
   14.220      796
   14.235      798
   14.250      808
   14.265      772
   14.280      760
   14.295      795
   14.310      853
   14.325      842
   14.340      832
   14.355      811
   14.370      761
   14.385      703
   14.400      656
   14.415      607
   14.430      618
   14.445      639
   14.460      717
   14.475      727
   14.490      737
   14.505      731
   14.520      650
   14.535      583
   14.550      498
   14.565      446
   14.580      403
   14.595      368
   14.610      358
   14.625      341
   14.640      356
   14.655      353
   14.670      362
   14.685      352
   14.700      366
   14.715      396
   14.730      414
   14.745      494
   14.760      548
   14.775      600
   14.790      656
   14.805      735
   14.820      840
   14.835      936
   14.850     1050
   14.865     1150
   14.880     1262
   14.895     1387
   14.910     1396
   14.925     1475
   14.940     1684
   14.955     1787
   14.970     1874
   14.985     1932
   15.000     2014
   15.015     1978
   15.030     1802
   15.045     1456
   15.060     1180
   15.075      852
   15.090      652
   15.105      520
   15.120      450
   15.135      351
   15.150      356
   15.165      369
   15.180      338
   15.195      304
   15.210      317
   15.225      311
   15.240      307
   15.255      307
   15.270      272
   15.285      305
   15.300      318
   15.315      328
   15.330      300
   15.345      320
   15.360      368
   15.375      370
   15.390      442
   15.405      444
   15.420      486
   15.435      496
   15.450      496
   15.465      527
   15.480      612
   15.495      611
   15.510      670
   15.525      744
   15.540      913
   15.555     1018
   15.570     1110
   15.585     1043
   15.600     1093
   15.615      960
   15.630      896
   15.645      713
   15.660      569
   15.675      483
   15.690      377
   15.705      333
   15.720      338
   15.735      297
   15.750      290
   15.765      292
   15.780      320
   15.795      274
   15.810      321
   15.825      300
   15.840      304
   15.855      325
   15.870      311
   15.885      326
   15.900      351
   15.915      369
   15.930      384
   15.945      458
   15.960      463
   15.975      532
   15.990      614
   16.005      627
   16.020      717
   16.035      738
   16.050      729
   16.065      731
   16.080      715
   16.095      621
   16.110      544
   16.125      516
   16.140      519
   16.155      514
   16.170      504
   16.185      520
   16.200      557
   16.215      573
   16.230      615
   16.245      728
   16.260      801
   16.275      867
   16.290      990
   16.305     1170
   16.320     1241
   16.335     1249
   16.350     1299
   16.365     1390
   16.380     1381
   16.395     1573
   16.410     1743
   16.425     1897
   16.440     1902
   16.455     1826
   16.470     1810
   16.485     1540
   16.500     1357
   16.515     1156
   16.530     1046
   16.545     1021
   16.560     1077
   16.575     1009
   16.590      984
   16.605      942
   16.620      866
   16.635      825
   16.650      742
   16.665      628
   16.680      568
   16.695      483
   16.710      414
   16.725      377
   16.740      368
   16.755      351
   16.770      337
   16.785      324
   16.800      314
   16.815      319
   16.830      329
   16.845      342
   16.860      351
   16.875      375
   16.890      388
   16.905      413
   16.920      444
   16.935      456
   16.950      503
   16.965      541
   16.980      546
   16.995      578
   17.010      675
   17.025      683
   17.040      646
   17.055      622
   17.070      584
   17.085      555
   17.100      571
   17.115      580
   17.130      610
   17.145      609
   17.160      585
   17.175      577
   17.190      545
   17.205      524
   17.220      463
   17.235      417
   17.250      366
   17.265      339
   17.280      298
   17.295      306
   17.310      267
   17.325      254
   17.340      262
   17.355      281
   17.370      291
   17.385      306
   17.400      274
   17.415      302
   17.430      274
   17.445      313
   17.460      306
   17.475      330
   17.490      323
   17.505      296
   17.520      322
   17.535      350
   17.550      322
   17.565      354
   17.580      331
   17.595      376
   17.610      372
   17.625      382
   17.640      393
   17.655      416
   17.670      402
   17.685      406
   17.700      424
   17.715      378
   17.730      388
   17.745      382
   17.760      409
   17.775      445
   17.790      426
   17.805      442
   17.820      436
   17.835      438
   17.850      440
   17.865      419
   17.880      417
   17.895      444
   17.910      450
   17.925      478
   17.940      476
   17.955      475
   17.970      508
   17.985      519
   18.000      512
   18.015      482
   18.030      474
   18.045      465
   18.060      465
   18.075      437
   18.090      403
   18.105      374
   18.120      344
   18.135      353
   18.150      328
   18.165      328
   18.180      343
   18.195      314
   18.210      311
   18.225      347
   18.240      366
   18.255      366
   18.270      379
   18.285      387
   18.300      403
   18.315      425
   18.330      401
   18.345      488
   18.360      493
   18.375      499
   18.390      552
   18.405      568
   18.420      547
   18.435      579
   18.450      529
   18.465      485
   18.480      470
   18.495      383
   18.510      402
   18.525      370
   18.540      363
   18.555      339
   18.570      365
   18.585      327
   18.600      328
   18.615      313
   18.630      306
   18.645      320
   18.660      330
   18.675      321
   18.690      309
   18.705      312
   18.720      318
   18.735      318
   18.750      333
   18.765      361
   18.780      388
   18.795      432
   18.810      458
   18.825      478
   18.840      512
   18.855      562
   18.870      663
   18.885      775
   18.900      844
   18.915      900
   18.930      982
   18.945     1063
   18.960     1097
   18.975     1163
   18.990     1248
   19.005     1278
   19.020     1301
   19.035     1293
   19.050     1325
   19.065     1448
   19.080     1527
   19.095     1535
   19.110     1493
   19.125     1406
   19.140     1332
   19.155     1194
   19.170     1019
   19.185      867
   19.200      672
   19.215      564
   19.230      506
   19.245      464
   19.260      443
   19.275      447
   19.290      464
   19.305      476
   19.320      493
   19.335      548
   19.350      574
   19.365      573
   19.380      646
   19.395      723
   19.410      764
   19.425      823
   19.440      889
   19.455      995
   19.470     1117
   19.485     1185
   19.500     1228
   19.515     1223
   19.530     1143
   19.545     1053
   19.560      955
   19.575      861
   19.590      838
   19.605      853
   19.620      856
   19.635      860
   19.650      865
   19.665      843
   19.680      794
   19.695      767
   19.710      765
   19.725      783
   19.740      829
   19.755      862
   19.770      852
   19.785      826
   19.800      794
   19.815      728
   19.830      661
   19.845      610
   19.860      575
   19.875      542
   19.890      497
   19.905      474
   19.920      480
   19.935      489
   19.950      492
   19.965      503
   19.980      527
   19.995      579
   20.010      640
   20.025      701
   20.040      770
   20.055      842
   20.070      903
   20.085      917
   20.100      865
   20.115      793
   20.130      737
   20.145      694
   20.160      649
   20.175      640
   20.190      685
   20.205      719
   20.220      783
   20.235      865
   20.250      931
   20.265      954
   20.280      973
   20.295     1057
   20.310     1104
   20.325     1100
   20.340     1096
   20.355     1061
   20.370      997
   20.385      960
   20.400      923
   20.415      856
   20.430      793
   20.445      712
   20.460      654
   20.475      600
   20.490      550
   20.505      509
   20.520      486
   20.535      511
   20.550      527
   20.565      537
   20.580      590
   20.595      618
   20.610      637
   20.625      672
   20.640      700
   20.655      687
   20.670      671
   20.685      628
   20.700      589
   20.715      599
   20.730      557
   20.745      518
   20.760      490
   20.775      486
   20.790      478
   20.805      467
   20.820      489
   20.835      494
   20.850      521
   20.865      544
   20.880      529
   20.895      567
   20.910      651
   20.925      667
   20.940      662
   20.955      667
   20.970      638
   20.985      612
   21.000      601
   21.015      619
   21.030      622
   21.045      583
   21.060      557
   21.075      552
   21.090      537
   21.105      533
   21.120      546
   21.135      581
   21.150      606
   21.165      649
   21.180      716
   21.195      742
   21.210      761
   21.225      778
   21.240      787
   21.255      772
   21.270      766
   21.285      798
   21.300      821
   21.315      831
   21.330      809
   21.345      762
   21.360      727
   21.375      661
   21.390      568
   21.405      523
   21.420      479
   21.435      457
   21.450      430
   21.465      392
   21.480      390
   21.495      384
   21.510      369
   21.525      352
   21.540      348
   21.555      358
   21.570      344
   21.585      327
   21.600      333
   21.615      349
   21.630      358
   21.645      361
   21.660      385
   21.675      409
   21.690      415
   21.705      451
   21.720      512
   21.735      542
   21.750      553
   21.765      623
   21.780      693
   21.795      725
   21.810      807
   21.825      916
   21.840      975
   21.855      980
   21.870      974
   21.885      971
   21.900      952
   21.915      913
   21.930      897
   21.945      924
   21.960      945
   21.975      897
   21.990      830
   22.005      801
   22.020      765
   22.035      702
   22.050      652
   22.065      623
   22.080      582
   22.095      552
   22.110      545
   22.125      567
   22.140      607
   22.155      634
   22.170      648
   22.185      655
   22.200      647
   22.215      635
   22.230      639
   22.245      660
   22.260      657
   22.275      661
   22.290      696
   22.305      730
   22.320      762
   22.335      807
   22.350      819
   22.365      809
   22.380      805
   22.395      760
   22.410      707
   22.425      663
   22.440      598
   22.455      546
   22.470      506
   22.485      462
   22.500      427
   22.515      413
   22.530      402
   22.545      397
   22.560      394
   22.575      372
   22.590      357
   22.605      362
   22.620      350
   22.635      340
   22.650      347
   22.665      341
   22.680      337
   22.695      333
   22.710      326
   22.725      334
   22.740      346
   22.755      338
   22.770      335
   22.785      354
   22.800      362
   22.815      361
   22.830      365
   22.845      369
   22.860      381
   22.875      397
   22.890      407
   22.905      418
   22.920      436
   22.935      475
   22.950      521
   22.965      559
   22.980      604
   22.995      645
   23.010      666
   23.025      688
   23.040      693
   23.055      663
   23.070      671
   23.085      710
   23.100      681
   23.115      620
   23.130      622
   23.145      625
   23.160      595
   23.175      575
   23.190      567
   23.205      593
   23.220      636
   23.235      646
   23.250      643
   23.265      640
   23.280      613
   23.295      566
   23.310      545
   23.325      548
   23.340      533
   23.355      517
   23.370      520
   23.385      520
   23.400      494
   23.415      479
   23.430      500
   23.445      529
   23.460      551
   23.475      573
   23.490      574
   23.505      572
   23.520      558
   23.535      531
   23.550      505
   23.565      481
   23.580      441
   23.595      391
   23.610      363
   23.625      368
   23.640      365
   23.655      351
   23.670      353
   23.685      357
   23.700      363
   23.715      372
   23.730      405
   23.745      445
   23.760      459
   23.775      492
   23.790      496
   23.805      474
   23.820      525
   23.835      566
   23.850      570
   23.865      568
   23.880      554
   23.895      574
   23.910      594
   23.925      600
   23.940      583
   23.955      556
   23.970      526
   23.985      509
   24.000      502
   24.015      484
   24.030      468
   24.045      472
   24.060      464
   24.075      446
   24.090      443
   24.105      449
   24.120      450
   24.135      431
   24.150      400
   24.165      382
   24.180      368
   24.195      345
   24.210      337
   24.225      338
   24.240      334
   24.255      347
   24.270      363
   24.285      370
   24.300      381
   24.315      404
   24.330      435
   24.345      439
   24.360      430
   24.375      451
   24.390      451
   24.405      466
   24.420      477
   24.435      478
   24.450      488
   24.465      490
   24.480      494
   24.495      477
   24.510      480
   24.525      472
   24.540      456
   24.555      419
   24.570      364
   24.585      341
   24.600      336
   24.615      320
   24.630      305
   24.645      335
   24.660      348
   24.675      350
   24.690      373
   24.705      379
   24.720      394
   24.735      409
   24.750      430
   24.765      483
   24.780      514
   24.795      510
   24.810      517
   24.825      503
   24.840      487
   24.855      492
   24.870      459
   24.885      438
   24.900      433
   24.915      439
   24.930      447
   24.945      445
   24.960      432
   24.975      413
   24.990      413
   25.005      414
   25.020      417
   25.035      409
   25.050      402
   25.065      405
   25.080      405
   25.095      402
   25.110      384
   25.125      359
   25.140      369
   25.155      386
   25.170      399
   25.185      410
   25.200      428
   25.215      455
   25.230      465
   25.245      471
   25.260      467
   25.275      482
   25.290      494
   25.305      465
   25.320      442
   25.335      433
   25.350      430
   25.365      442
   25.380      458
   25.395      465
   25.410      481
   25.425      517
   25.440      543
   25.455      553
   25.470      567
   25.485      587
   25.500      593
   25.515      598
   25.530      615
   25.545      616
   25.560      599
   25.575      578
   25.590      564
   25.605      570
   25.620      571
   25.635      543
   25.650      519
   25.665      523
   25.680      526
   25.695      524
   25.710      525
   25.725      509
   25.740      494
   25.755      503
   25.770      515
   25.785      518
   25.800      525
   25.815      528
   25.830      529
   25.845      538
   25.860      517
   25.875      482
   25.890      457
   25.905      432
   25.920      398
   25.935      369
   25.950      376
   25.965      376
   25.980      360
   25.995      345
   26.010      328
   26.025      317
   26.040      333
   26.055      340
   26.070      339
   26.085      357
   26.100      360
   26.115      367
   26.130      382
   26.145      392
   26.160      414
   26.175      413
   26.190      438
   26.205      473
   26.220      471
   26.235      471
   26.250      481
   26.265      504
   26.280      513
   26.295      499
   26.310      478
   26.325      462
   26.340      478
   26.355      460
   26.370      435
   26.385      445
   26.400      449
   26.415      452
   26.430      460
   26.445      457
   26.460      450
   26.475      438
   26.490      392
   26.505      392
   26.520      396
   26.535      370
   26.550      365
   26.565      351
   26.580      330
   26.595      303
   26.610      316
   26.625      324
   26.640      312
   26.655      293
   26.670      287
   26.685      301
   26.700      285
   26.715      280
   26.730      289
   26.745      286
   26.760      295
   26.775      298
   26.790      280
   26.805      289
   26.820      319
   26.835      335
   26.850      333
   26.865      327
   26.880      342
   26.895      340
   26.910      339
   26.925      344
   26.940      349
   26.955      339
   26.970      321
   26.985      310
   27.000      295
   27.015      294
   27.030      300
   27.045      300
   27.060      311
   27.075      313
   27.090      301
   27.105      297
   27.120      322
   27.135      339
   27.150      332
   27.165      324
   27.180      318
   27.195      322
   27.210      312
   27.225      307
   27.240      314
   27.255      318
   27.270      327
   27.285      319
   27.300      332
   27.315      352
   27.330      337
   27.345      330
   27.360      341
   27.375      347
   27.390      360
   27.405      375
   27.420      391
   27.435      401
   27.450      385
   27.465      374
   27.480      386
   27.495      399
   27.510      418
   27.525      436
   27.540      447
   27.555      449
   27.570      447
   27.585      458
   27.600      456
   27.615      441
   27.630      442
   27.645      422
   27.660      392
   27.675      391
   27.690      396
   27.705      400
   27.720      412
   27.735      409
   27.750      381
   27.765      361
   27.780      354
   27.795      352
   27.810      344
   27.825      349
   27.840      358
   27.855      338
   27.870      309
   27.885      293
   27.900      278
   27.915      264
   27.930      269
   27.945      274
   27.960      269
   27.975      261
   27.990      271
   28.005      285
   28.020      282
   28.035      277
   28.050      277
   28.065      273
   28.080      286
   28.095      299
   28.110      300
   28.125      305
   28.140      300
   28.155      291
   28.170      303
   28.185      313
   28.200      320
   28.215      322
   28.230      328
   28.245      325
   28.260      311
   28.275      303
   28.290      301
   28.305      298
   28.320      314
   28.335      340
   28.350      347
   28.365      337
   28.380      359
   28.395      376
   28.410      369
   28.425      364
   28.440      361
   28.455      346
   28.470      341
   28.485      331
   28.500      329
   28.515      352
   28.530      349
   28.545      358
   28.560      387
   28.575      400
   28.590      407
   28.605      411
   28.620      417
   28.635      414
   28.650      419
   28.665      406
   28.680      391
   28.695      376
   28.710      360
   28.725      356
   28.740      366
   28.755      376
   28.770      361
   28.785      362
   28.800      392
   28.815      408
   28.830      399
   28.845      389
   28.860      376
   28.875      355
   28.890      347
   28.905      353
   28.920      356
   28.935      367
   28.950      383
   28.965      383
   28.980      392
   28.995      408
   29.010      420
   29.025      440
   29.040      472
   29.055      488
   29.070      458
   29.085      444
   29.100      456
   29.115      462
   29.130      471
   29.145      494
   29.160      487
   29.175      432
   29.190      392
   29.205      388
   29.220      394
   29.235      411
   29.250      417
   29.265      400
   29.280      401
   29.295      426
   29.310      440
   29.325      440
   29.340      443
   29.355      444
   29.370      452
   29.385      453
   29.400      431
   29.415      410
   29.430      404
   29.445      407
   29.460      406
   29.475      398
   29.490      381
   29.505      365
   29.520      359
   29.535      340
   29.550      315
   29.565      308
   29.580      315
   29.595      316
   29.610      312
   29.625      309
   29.640      311
   29.655      321
   29.670      324
   29.685      321
   29.700      335
   29.715      341
   29.730      329
   29.745      326
   29.760      338
   29.775      341
   29.790      324
   29.805      325
   29.820      338
   29.835      344
   29.850      350
   29.865      362
   29.880      361
   29.895      360
   29.910      376
   29.925      365
   29.940      351
   29.955      354
   29.970      336
   29.985      326
   30.000      345
   30.015      349
   30.030      362
   30.045      382
   30.060      386
   30.075      396
   30.090      414
   30.105      451
   30.120      471
   30.135      473
   30.150      480
   30.165      501
   30.180      511
   30.195      518
   30.210      541
   30.225      584
   30.240      618
   30.255      641
   30.270      675
   30.285      695
   30.300      721
   30.315      732
   30.330      697
   30.345      678
   30.360      639
   30.375      606
   30.390      575
   30.405      509
   30.420      463
   30.435      441
   30.450      430
   30.465      407
   30.480      383
   30.495      396
   30.510      404
   30.525      390
   30.540      387
   30.555      356
   30.570      337
   30.585      351
   30.600      345
   30.615      341
   30.630      330
   30.645      312
   30.660      294
   30.675      285
   30.690      287
   30.705      302
   30.720      327
   30.735      342
   30.750      351
   30.765      338
   30.780      334
   30.795      326
   30.810      299
   30.825      321
   30.840      340
   30.855      343
   30.870      344
   30.885      344
   30.900      364
   30.915      362
   30.930      347
   30.945      352
   30.960      369
   30.975      386
   30.990      381
   31.005      377
   31.020      379
   31.035      375
   31.050      369
   31.065      356
   31.080      366
   31.095      379
   31.110      368
   31.125      377
   31.140      362
   31.155      335
   31.170      344
   31.185      347
   31.200      347
   31.215      334
   31.230      313
   31.245      321
   31.260      340
   31.275      343
   31.290      339
   31.305      352
   31.320      369
   31.335      371
   31.350      369
   31.365      386
   31.380      401
   31.395      394
   31.410      385
   31.425      389
   31.440      418
   31.455      418
   31.470      402
   31.485      398
   31.500      393
   31.515      387
   31.530      364
   31.545      338
   31.560      337
   31.575      345
   31.590      355
   31.605      370
   31.620      369
   31.635      358
   31.650      352
   31.665      354
   31.680      360
   31.695      352
   31.710      355
   31.725      386
   31.740      401
   31.755      394
   31.770      400
   31.785      398
   31.800      383
   31.815      360
   31.830      349
   31.845      351
   31.860      343
   31.875      342
   31.890      354
   31.905      360
   31.920      356
   31.935      355
   31.950      357
   31.965      358
   31.980      349
   31.995      351
   32.010      350
   32.025      343
   32.040      336
   32.055      325
   32.070      325
   32.085      327
   32.100      328
   32.115      329
   32.130      319
   32.145      311
   32.160      340
   32.175      362
   32.190      353
   32.205      343
   32.220      343
   32.235      343
   32.250      346
   32.265      354
   32.280      354
   32.295      359
   32.310      377
   32.325      376
   32.340      365
   32.355      344
   32.370      339
   32.385      352
   32.400      350
   32.415      356
   32.430      378
   32.445      394
   32.460      393
   32.475      388
   32.490      388
   32.505      396
   32.520      410
   32.535      394
   32.550      380
   32.565      373
   32.580      356
   32.595      367
   32.610      384
   32.625      377
   32.640      359
   32.655      359
   32.670      365
   32.685      349
   32.700      350
   32.715      368
   32.730      371
   32.745      372
   32.760      382
   32.775      394
   32.790      410
   32.805      413
   32.820      410
   32.835      423
   32.850      434
   32.865      425
   32.880      399
   32.895      393
   32.910      392
   32.925      382
   32.940      382
   32.955      387
   32.970      386
   32.985      370
   33.000      360
   33.015      361
   33.030      365
   33.045      367
   33.060      371
   33.075      377
   33.090      359
   33.105      334
   33.120      329
   33.135      314
   33.150      306
   33.165      323
   33.180      333
   33.195      329
   33.210      318
   33.225      324
   33.240      346
   33.255      363
   33.270      362
   33.285      359
   33.300      381
   33.315      380
   33.330      364
   33.345      375
   33.360      377
   33.375      365
   33.390      377
   33.405      393
   33.420      382
   33.435      379
   33.450      370
   33.465      354
   33.480      360
   33.495      370
   33.510      374
   33.525      371
   33.540      372
   33.555      380
   33.570      369
   33.585      342
   33.600      324
   33.615      327
   33.630      325
   33.645      300
   33.660      297
   33.675      307
   33.690      319
   33.705      319
   33.720      303
   33.735      306
   33.750      321
   33.765      328
   33.780      339
   33.795      333
   33.810      311
   33.825      321
   33.840      334
   33.855      348
   33.870      357
   33.885      337
   33.900      329
   33.915      325
   33.930      327
   33.945      334
   33.960      337
   33.975      338
   33.990      332
   34.005      335
   34.020      339
   34.035      331
   34.050      332
   34.065      323
   34.080      315
   34.095      339
   34.110      343
   34.125      327
   34.140      319
   34.155      319
   34.170      328
   34.185      328
   34.200      301
   34.215      298
   34.230      317
   34.245      316
   34.260      313
   34.275      320
   34.290      337
   34.305      350
   34.320      357
   34.335      343
   34.350      314
   34.365      316
   34.380      325
   34.395      328
   34.410      350
   34.425      354
   34.440      353
   34.455      370
   34.470      373
   34.485      381
   34.500      384
   34.515      388
   34.530      380
   34.545      357
   34.560      354
   34.575      358
   34.590      390
   34.605      392
   34.620      392
   34.635      383
   34.650      359
   34.665      370
   34.680      380
   34.695      378
   34.710      379
   34.725      367
   34.740      359
   34.755      353
   34.770      340
   34.785      346
   34.800      351
   34.815      368
   34.830      372
   34.845      366
   34.860      374
   34.875      361
   34.890      349
   34.905      361
   34.920      378
   34.935      358
   34.950      346
   34.965      363
   34.980      359
   34.995      348
   35.010      348
   35.025      354
   35.040      366
   35.055      371
   35.070      364
   35.085      368
   35.100      378
   35.115      383
   35.130      373
   35.145      351
   35.160      349
   35.175      351
   35.190      354
   35.205      353
   35.220      364
   35.235      362
   35.250      338
   35.265      330
   35.280      332
   35.295      327
   35.310      329
   35.325      339
   35.340      332
   35.355      322
   35.370      330
   35.385      348
   35.400      341
   35.415      312
   35.430      297
   35.445      305
   35.460      307
   35.475      298
   35.490      300
   35.505      305
   35.520      301
   35.535      305
   35.550      313
   35.565      318
   35.580      322
   35.595      322
   35.610      320
   35.625      309
   35.640      305
   35.655      313
   35.670      307
   35.685      296
   35.700      294
   35.715      305
   35.730      306
   35.745      309
   35.760      319
   35.775      309
   35.790      296
   35.805      304
   35.820      342
   35.835      358
   35.850      330
   35.865      323
   35.880      351
   35.895      363
   35.910      339
   35.925      323
   35.940      331
   35.955      327
   35.970      323
   35.985      315
   36.000      303
   36.015      310
   36.030      297
   36.045      272
   36.060      270
   36.075      293
   36.090      288
   36.105      277
   36.120      284
   36.135      268
   36.150      273
   36.165      288
   36.180      287
   36.195      275
   36.210      259
   36.225      266
   36.240      273
   36.255      271
   36.270      273
   36.285      277
   36.300      286
   36.315      288
   36.330      292
   36.345      295
   36.360      298
   36.375      304
   36.390      318
   36.405      326
   36.420      315
   36.435      308
   36.450      318
   36.465      325
   36.480      318
   36.495      308
   36.510      312
   36.525      321
   36.540      330
   36.555      332
   36.570      316
   36.585      313
