   4.5000      255
   4.5150      278
   4.5300      293
   4.5450      258
   4.5600      270
   4.5750      279
   4.5900      251
   4.6050      271
   4.6200      274
   4.6350      259
   4.6500      269
   4.6650      273
   4.6800      285
   4.6950      280
   4.7100      289
   4.7250      289
   4.7400      303
   4.7550      296
   4.7700      297
   4.7850      286
   4.8000      300
   4.8150      302
   4.8300      303
   4.8450      327
   4.8600      316
   4.8750      328
   4.8900      300
   4.9050      295
   4.9200      304
   4.9350      299
   4.9500      306
   4.9650      314
   4.9800      320
   4.9950      301
   5.0100      271
   5.0250      291
   5.0400      324
   5.0550      349
   5.0700      334
   5.0850      320
   5.1000      325
   5.1150      334
   5.1300      321
   5.1450      333
   5.1600      362
   5.1750      355
   5.1900      364
   5.2050      355
   5.2200      387
   5.2350      342
   5.2500      377
   5.2650      352
   5.2800      379
   5.2950      364
   5.3100      372
   5.3250      358
   5.3400      383
   5.3550      335
   5.3700      400
   5.3850      384
   5.4000      386
   5.4150      359
   5.4300      375
   5.4450      422
   5.4600      401
   5.4750      424
   5.4900      417
   5.5050      393
   5.5200      406
   5.5350      432
   5.5500      408
   5.5650      450
   5.5800      411
   5.5950      411
   5.6100      439
   5.6250      447
   5.6400      451
   5.6550      450
   5.6700      468
   5.6850      466
   5.7000      504
   5.7150      494
   5.7300      479
   5.7450      477
   5.7600      482
   5.7750      465
   5.7900      480
   5.8050      490
   5.8200      516
   5.8350      499
   5.8500      511
   5.8650      480
   5.8800      554
   5.8950      548
   5.9100      528
   5.9250      522
   5.9400      514
   5.9550      527
   5.9700      551
   5.9850      560
   6.0000      607
   6.0150      573
   6.0300      566
   6.0450      594
   6.0600      607
   6.0750      585
   6.0900      621
   6.1050      638
   6.1200      635
   6.1350      641
   6.1500      629
   6.1650      654
   6.1800      661
   6.1950      685
   6.2100      693
   6.2250      693
   6.2400      716
   6.2550      704
   6.2700      705
   6.2850      748
   6.3000      739
   6.3150      721
   6.3300      714
   6.3450      738
   6.3600      726
   6.3750      752
   6.3900      844
   6.4050      861
   6.4200      828
   6.4350      785
   6.4500      813
   6.4650      834
   6.4800      858
   6.4950      831
   6.5100      851
   6.5250      845
   6.5400      853
   6.5550      881
   6.5700      891
   6.5850      857
   6.6000      952
   6.6150      971
   6.6300      939
   6.6450      970
   6.6600      977
   6.6750      969
   6.6900      965
   6.7050     1022
   6.7200     1077
   6.7350     1065
   6.7500     1070
   6.7650     1040
   6.7800     1048
   6.7950     1095
   6.8100     1097
   6.8250     1164
   6.8400     1172
   6.8550     1105
   6.8700     1160
   6.8850     1193
   6.9000     1219
   6.9150     1165
   6.9300     1190
   6.9450     1232
   6.9600     1205
   6.9750     1257
   6.9900     1308
   7.0050     1296
   7.0200     1331
   7.0350     1352
   7.0500     1388
   7.0650     1353
   7.0800     1389
   7.0950     1440
   7.1100     1478
   7.1250     1428
   7.1400     1463
   7.1550     1507
   7.1700     1480
   7.1850     1388
   7.2000     1363
   7.2150     1207
   7.2300     1206
   7.2450     1200
   7.2600     1100
   7.2750     1154
   7.2900     1034
   7.3050     1030
   7.3200     1000
   7.3350     1007
   7.3500      963
   7.3650      902
   7.3800      903
   7.3950      866
   7.4100      823
   7.4250      818
   7.4400      798
   7.4550      809
   7.4700      770
   7.4850      753
   7.5000      759
   7.5150      679
   7.5300      708
   7.5450      695
   7.5600      709
   7.5750      697
   7.5900      647
   7.6050      642
   7.6200      633
   7.6350      621
   7.6500      614
   7.6650      612
   7.6800      563
   7.6950      549
   7.7100      545
   7.7250      540
   7.7400      530
   7.7550      520
   7.7700      538
   7.7850      485
   7.8000      488
   7.8150      494
   7.8300      461
   7.8450      468
   7.8600      475
   7.8750      423
   7.8900      429
   7.9050      419
   7.9200      449
   7.9350      426
   7.9500      407
   7.9650      397
   7.9800      414
   7.9950      390
   8.0100      386
   8.0250      387
   8.0400      371
   8.0550      359
   8.0700      309
   8.0850      332
   8.1000      344
   8.1150      314
   8.1300      321
   8.1450      310
   8.1600      330
   8.1750      349
   8.1900      324
   8.2050      315
   8.2200      313
   8.2350      285
   8.2500      293
   8.2650      296
   8.2800      299
   8.2950      264
   8.3100      285
   8.3250      276
   8.3400      280
   8.3550      278
   8.3700      292
   8.3850      266
   8.4000      268
   8.4150      265
   8.4300      266
   8.4450      259
   8.4600      288
   8.4750      275
   8.4900      272
   8.5050      257
   8.5200      248
   8.5350      246
   8.5500      247
   8.5650      244
   8.5800      250
   8.5950      259
   8.6100      270
   8.6250      261
   8.6400      261
   8.6550      274
   8.6700      245
   8.6850      243
   8.7000      251
   8.7150      249
   8.7300      248
   8.7450      259
   8.7600      268
   8.7750      226
   8.7900      222
   8.8050      264
   8.8200      237
   8.8350      209
   8.8500      229
   8.8650      236
   8.8800      229
   8.8950      218
   8.9100      247
   8.9250      247
   8.9400      236
   8.9550      238
   8.9700      238
   8.9850      231
   9.0000      240
   9.0150      252
   9.0300      231
   9.0450      211
   9.0600      220
   9.0750      231
   9.0900      231
   9.1050      240
   9.1200      217
   9.1350      239
   9.1500      224
   9.1650      224
   9.1800      234
   9.1950      237
   9.2100      207
   9.2250      224
   9.2400      196
   9.2550      217
   9.2700      227
   9.2850      226
   9.3000      247
   9.3150      231
   9.3300      232
   9.3450      249
   9.3600      222
   9.3750      222
   9.3900      218
   9.4050      219
   9.4200      214
   9.4350      235
   9.4500      204
   9.4650      194
   9.4800      225
   9.4950      208
   9.5100      215
   9.5250      214
   9.5400      229
   9.5550      221
   9.5700      200
   9.5850      208
   9.6000      202
   9.6150      198
   9.6300      212
   9.6450      222
   9.6600      231
   9.6750      223
   9.6900      211
   9.7050      207
   9.7200      213
   9.7350      231
   9.7500      207
   9.7650      212
   9.7800      225
   9.7950      229
   9.8100      229
   9.8250      244
   9.8400      251
   9.8550      230
   9.8700      216
   9.8850      240
   9.9000      239
   9.9150      240
   9.9300      243
   9.9450      254
   9.9600      245
   9.9750      228
   9.9900      226
  10.0050      220
  10.0200      244
  10.0350      225
  10.0500      230
  10.0650      222
  10.0800      213
  10.0950      222
  10.1100      233
  10.1250      226
  10.1400      243
  10.1550      207
  10.1700      231
  10.1850      231
  10.2000      239
  10.2150      237
  10.2300      211
  10.2450      219
  10.2600      231
  10.2750      204
  10.2900      222
  10.3050      229
  10.3200      222
  10.3350      232
  10.3500      226
  10.3650      218
  10.3800      241
  10.3950      236
  10.4100      212
  10.4250      222
  10.4400      225
  10.4550      218
  10.4700      223
  10.4850      227
  10.5000      231
  10.5150      198
  10.5300      212
  10.5450      227
  10.5600      218
  10.5750      225
  10.5900      231
  10.6050      231
  10.6200      222
  10.6350      208
  10.6500      215
  10.6650      236
  10.6800      231
  10.6950      212
  10.7100      226
  10.7250      212
  10.7400      213
  10.7550      224
  10.7700      252
  10.7850      245
  10.8000      237
  10.8150      233
  10.8300      238
  10.8450      213
  10.8600      239
  10.8750      232
  10.8900      200
  10.9050      226
  10.9200      231
  10.9350      214
  10.9500      213
  10.9650      217
  10.9800      205
  10.9950      218
  11.0100      250
  11.0250      253
  11.0400      233
  11.0550      211
  11.0700      238
  11.0850      248
  11.1000      219
  11.1150      235
  11.1300      223
  11.1450      225
  11.1600      227
  11.1750      232
  11.1900      208
  11.2050      228
  11.2200      219
  11.2350      202
  11.2500      246
  11.2650      227
  11.2800      209
  11.2950      227
  11.3100      204
  11.3250      198
  11.3400      224
  11.3550      227
  11.3700      218
  11.3850      226
  11.4000      217
  11.4150      216
  11.4300      200
  11.4450      241
  11.4600      212
  11.4750      221
  11.4900      266
  11.5050      222
  11.5200      219
  11.5350      226
  11.5500      239
  11.5650      210
  11.5800      211
  11.5950      230
  11.6100      237
  11.6250      239
  11.6400      227
  11.6550      213
  11.6700      222
  11.6850      230
  11.7000      216
  11.7150      225
  11.7300      212
  11.7450      205
  11.7600      225
  11.7750      224
  11.7900      213
  11.8050      215
  11.8200      243
  11.8350      230
  11.8500      222
  11.8650      243
  11.8800      235
  11.8950      243
  11.9100      258
  11.9250      240
  11.9400      240
  11.9550      235
  11.9700      213
  11.9850      208
  12.0000      223
  12.0150      238
  12.0300      235
  12.0450      232
  12.0600      218
  12.0750      217
  12.0900      231
  12.1050      234
  12.1200      255
  12.1350      253
  12.1500      236
  12.1650      222
  12.1800      205
  12.1950      228
  12.2100      232
  12.2250      238
  12.2400      252
  12.2550      251
  12.2700      260
  12.2850      233
  12.3000      249
  12.3150      251
  12.3300      252
  12.3450      250
  12.3600      226
  12.3750      213
  12.3900      235
  12.4050      246
  12.4200      246
  12.4350      231
  12.4500      245
  12.4650      245
  12.4800      221
  12.4950      216
  12.5100      221
  12.5250      221
  12.5400      240
  12.5550      265
  12.5700      258
  12.5850      272
  12.6000      237
  12.6150      243
  12.6300      265
  12.6450      264
  12.6600      262
  12.6750      242
  12.6900      238
  12.7050      261
  12.7200      276
  12.7350      262
  12.7500      273
  12.7650      289
  12.7800      293
  12.7950      271
  12.8100      261
  12.8250      269
  12.8400      298
  12.8550      261
  12.8700      252
  12.8850      287
  12.9000      281
  12.9150      280
  12.9300      277
  12.9450      302
  12.9600      272
  12.9750      279
  12.9900      262
  13.0050      291
  13.0200      285
  13.0350      301
  13.0500      296
  13.0650      276
  13.0800      281
  13.0950      268
  13.1100      279
  13.1250      277
  13.1400      285
  13.1550      284
  13.1700      278
  13.1850      261
  13.2000      310
  13.2150      310
  13.2300      295
  13.2450      312
  13.2600      298
  13.2750      289
  13.2900      274
  13.3050      271
  13.3200      284
  13.3350      302
  13.3500      297
  13.3650      282
  13.3800      283
  13.3950      306
  13.4100      327
  13.4250      308
  13.4400      277
  13.4550      287
  13.4700      303
  13.4850      298
  13.5000      281
  13.5150      287
  13.5300      302
  13.5450      309
  13.5600      301
  13.5750      298
  13.5900      310
  13.6050      293
  13.6200      281
  13.6350      301
  13.6500      279
  13.6650      306
  13.6800      295
  13.6950      314
  13.7100      333
  13.7250      343
  13.7400      345
  13.7550      317
  13.7700      300
  13.7850      307
  13.8000      318
  13.8150      301
  13.8300      293
  13.8450      306
  13.8600      335
  13.8750      328
  13.8900      314
  13.9050      303
  13.9200      298
  13.9350      311
  13.9500      292
  13.9650      278
  13.9800      296
  13.9950      308
  14.0100      280
  14.0250      320
  14.0400      320
  14.0550      288
  14.0700      308
  14.0850      278
  14.1000      283
  14.1150      306
  14.1300      335
  14.1450      324
  14.1600      324
  14.1750      365
  14.1900      330
  14.2050      323
  14.2200      293
  14.2350      300
  14.2500      292
  14.2650      255
  14.2800      270
  14.2950      271
  14.3100      247
  14.3250      267
  14.3400      291
  14.3550      267
  14.3700      278
  14.3850      274
  14.4000      296
  14.4150      256
  14.4300      241
  14.4450      231
  14.4600      254
  14.4750      259
  14.4900      246
  14.5050      249
  14.5200      245
  14.5350      256
  14.5500      232
  14.5650      259
  14.5800      242
  14.5950      238
  14.6100      253
  14.6250      255
  14.6400      241
  14.6550      250
  14.6700      247
  14.6850      246
  14.7000      229
  14.7150      243
  14.7300      230
  14.7450      239
  14.7600      252
  14.7750      231
  14.7900      236
  14.8050      236
  14.8200      220
  14.8350      238
  14.8500      251
  14.8650      259
  14.8800      256
  14.8950      266
  14.9100      239
  14.9250      261
  14.9400      233
  14.9550      216
  14.9700      247
  14.9850      250
  15.0000      237
  15.0150      227
  15.0300      241
  15.0450      233
  15.0600      236
  15.0750      252
  15.0900      261
  15.1050      262
  15.1200      248
  15.1350      273
  15.1500      272
  15.1650      236
  15.1800      252
  15.1950      249
  15.2100      240
  15.2250      227
  15.2400      246
  15.2550      242
  15.2700      243
  15.2850      243
  15.3000      249
  15.3150      227
  15.3300      221
  15.3450      267
  15.3600      285
  15.3750      254
  15.3900      256
  15.4050      270
  15.4200      265
  15.4350      241
  15.4500      279
  15.4650      268
  15.4800      247
  15.4950      260
  15.5100      259
  15.5250      289
  15.5400      304
  15.5550      281
  15.5700      275
  15.5850      256
  15.6000      269
  15.6150      291
  15.6300      280
  15.6450      295
  15.6600      298
  15.6750      307
  15.6900      308
  15.7050      310
  15.7200      327
  15.7350      380
  15.7500      357
  15.7650      383
  15.7800      448
  15.7950      424
  15.8100      461
  15.8250      532
  15.8400      565
  15.8550      604
  15.8700      599
  15.8850      605
  15.9000      577
  15.9150      577
  15.9300      603
  15.9450      648
  15.9600      698
  15.9750      703
  15.9900      709
  16.0050      612
  16.0200      554
  16.0350      501
  16.0500      428
  16.0650      426
  16.0800      372
  16.0950      354
  16.1100      367
  16.1250      348
  16.1400      320
  16.1550      338
  16.1700      352
  16.1850      331
  16.2000      329
  16.2150      374
  16.2300      360
  16.2450      362
  16.2600      347
  16.2750      389
  16.2900      359
  16.3050      366
  16.3200      347
  16.3350      341
  16.3500      359
  16.3650      328
  16.3800      363
  16.3950      333
  16.4100      347
  16.4250      362
  16.4400      376
  16.4550      370
  16.4700      333
  16.4850      356
  16.5000      392
  16.5150      333
  16.5300      345
  16.5450      393
  16.5600      398
  16.5750      380
  16.5900      384
  16.6050      377
  16.6200      359
  16.6350      368
  16.6500      386
  16.6650      371
  16.6800      368
  16.6950      353
  16.7100      391
  16.7250      372
  16.7400      374
  16.7550      365
  16.7700      374
  16.7850      370
  16.8000      397
  16.8150      378
  16.8300      380
  16.8450      388
  16.8600      377
  16.8750      376
  16.8900      375
  16.9050      388
  16.9200      391
  16.9350      399
  16.9500      387
  16.9650      378
  16.9800      394
  16.9950      379
  17.0100      356
  17.0250      354
  17.0400      364
  17.0550      369
  17.0700      360
  17.0850      360
  17.1000      378
  17.1150      357
  17.1300      366
  17.1450      373
  17.1600      370
  17.1750      379
  17.1900      357
  17.2050      343
  17.2200      375
  17.2350      391
  17.2500      388
  17.2650      405
  17.2800      389
  17.2950      358
  17.3100      348
  17.3250      386
  17.3400      399
  17.3550      384
  17.3700      371
  17.3850      397
  17.4000      386
  17.4150      384
  17.4300      388
  17.4450      365
  17.4600      374
  17.4750      366
  17.4900      371
  17.5050      353
  17.5200      414
  17.5350      411
  17.5500      390
  17.5650      363
  17.5800      349
  17.5950      374
  17.6100      390
  17.6250      376
  17.6400      366
  17.6550      357
  17.6700      368
  17.6850      373
  17.7000      385
  17.7150      386
  17.7300      373
  17.7450      391
  17.7600      383
  17.7750      391
  17.7900      355
  17.8050      367
  17.8200      417
  17.8350      399
  17.8500      402
  17.8650      375
  17.8800      362
  17.8950      387
  17.9100      402
  17.9250      375
  17.9400      410
  17.9550      403
  17.9700      419
  17.9850      367
  18.0000      381
  18.0150      387
  18.0300      392
  18.0450      425
  18.0600      380
  18.0750      364
  18.0900      384
  18.1050      416
  18.1200      400
  18.1350      382
  18.1500      381
  18.1650      363
  18.1800      394
  18.1950      391
  18.2100      380
  18.2250      403
  18.2400      376
  18.2550      406
  18.2700      399
  18.2850      410
  18.3000      389
  18.3150      364
  18.3300      364
  18.3450      389
  18.3600      395
  18.3750      400
  18.3900      420
  18.4050      404
  18.4200      374
  18.4350      428
  18.4500      429
  18.4650      403
  18.4800      377
  18.4950      418
  18.5100      393
  18.5250      435
  18.5400      445
  18.5550      421
  18.5700      443
  18.5850      443
  18.6000      436
  18.6150      425
  18.6300      414
  18.6450      443
  18.6600      405
  18.6750      415
  18.6900      439
  18.7050      431
  18.7200      452
  18.7350      420
  18.7500      433
  18.7650      441
  18.7800      471
  18.7950      510
  18.8100      494
  18.8250      540
  18.8400      638
  18.8550      641
  18.8700      689
  18.8850      746
  18.9000      847
  18.9150      914
  18.9300      982
  18.9450     1089
  18.9600     1166
  18.9750     1142
  18.9900     1105
  19.0050     1038
  19.0200      978
  19.0350      857
  19.0500      789
  19.0650      695
  19.0800      609
  19.0950      596
  19.1100      561
  19.1250      521
  19.1400      478
  19.1550      483
  19.1700      444
  19.1850      443
  19.2000      438
  19.2150      430
  19.2300      424
  19.2450      405
  19.2600      414
  19.2750      463
  19.2900      418
  19.3050      429
  19.3200      423
  19.3350      441
  19.3500      407
  19.3650      411
  19.3800      401
  19.3950      435
  19.4100      450
  19.4250      422
  19.4400      425
  19.4550      416
  19.4700      441
  19.4850      410
  19.5000      397
  19.5150      391
  19.5300      384
  19.5450      397
  19.5600      394
  19.5750      409
  19.5900      387
  19.6050      408
  19.6200      388
  19.6350      387
  19.6500      409
  19.6650      421
  19.6800      419
  19.6950      422
  19.7100      392
  19.7250      373
  19.7400      380
  19.7550      416
  19.7700      395
  19.7850      390
  19.8000      398
  19.8150      399
  19.8300      406
  19.8450      403
  19.8600      412
  19.8750      431
  19.8900      404
  19.9050      394
  19.9200      415
  19.9350      411
  19.9500      418
  19.9650      422
  19.9800      447
  19.9950      460
  20.0100      474
  20.0250      512
  20.0400      519
  20.0550      561
  20.0700      575
  20.0850      567
  20.1000      601
  20.1150      550
  20.1300      574
  20.1450      582
  20.1600      549
  20.1750      529
  20.1900      497
  20.2050      514
  20.2200      497
  20.2350      477
  20.2500      456
  20.2650      454
  20.2800      453
  20.2950      496
  20.3100      492
  20.3250      479
  20.3400      468
  20.3550      509
  20.3700      495
  20.3850      555
  20.4000      525
  20.4150      493
  20.4300      470
  20.4450      454
  20.4600      432
  20.4750      431
  20.4900      425
  20.5050      412
  20.5200      421
  20.5350      424
  20.5500      418
  20.5650      404
  20.5800      414
  20.5950      415
  20.6100      456
  20.6250      420
  20.6400      433
  20.6550      393
  20.6700      387
  20.6850      396
  20.7000      372
  20.7150      367
  20.7300      364
  20.7450      347
  20.7600      339
  20.7750      386
  20.7900      382
  20.8050      354
  20.8200      348
  20.8350      382
  20.8500      387
  20.8650      367
  20.8800      372
  20.8950      363
  20.9100      339
  20.9250      348
  20.9400      360
  20.9550      330
  20.9700      324
  20.9850      334
  21.0000      349
  21.0150      339
  21.0300      336
  21.0450      340
  21.0600      333
  21.0750      355
  21.0900      353
  21.1050      357
  21.1200      342
  21.1350      330
  21.1500      354
  21.1650      351
  21.1800      314
  21.1950      341
  21.2100      340
  21.2250      356
  21.2400      339
  21.2550      341
  21.2700      360
  21.2850      343
  21.3000      318
  21.3150      322
  21.3300      331
  21.3450      314
  21.3600      323
  21.3750      318
  21.3900      322
  21.4050      331
  21.4200      325
  21.4350      328
  21.4500      342
  21.4650      326
  21.4800      336
  21.4950      325
  21.5100      328
  21.5250      320
  21.5400      315
  21.5550      345
  21.5700      332
  21.5850      351
  21.6000      353
  21.6150      373
  21.6300      388
  21.6450      371
  21.6600      365
  21.6750      387
  21.6900      344
  21.7050      342
  21.7200      347
  21.7350      296
  21.7500      299
  21.7650      309
  21.7800      323
  21.7950      301
  21.8100      317
  21.8250      297
  21.8400      298
  21.8550      306
  21.8700      308
  21.8850      303
  21.9000      289
  21.9150      309
  21.9300      294
  21.9450      302
  21.9600      261
  21.9750      271
  21.9900      296
  22.0050      278
  22.0200      302
  22.0350      293
  22.0500      296
  22.0650      305
  22.0800      305
  22.0950      284
  22.1100      292
  22.1250      286
  22.1400      269
  22.1550      259
  22.1700      280
  22.1850      254
  22.2000      281
  22.2150      282
  22.2300      287
  22.2450      282
  22.2600      287
  22.2750      275
  22.2900      260
  22.3050      270
  22.3200      279
  22.3350      267
  22.3500      264
  22.3650      285
  22.3800      299
  22.3950      278
  22.4100      283
  22.4250      274
  22.4400      272
  22.4550      289
  22.4700      243
  22.4850      261
  22.5000      260
  22.5150      261
  22.5300      298
  22.5450      280
  22.5600      263
  22.5750      244
  22.5900      249
  22.6050      280
  22.6200      263
  22.6350      286
  22.6500      306
  22.6650      272
  22.6800      262
  22.6950      274
  22.7100      268
  22.7250      285
  22.7400      276
  22.7550      232
  22.7700      243
  22.7850      254
  22.8000      265
  22.8150      254
  22.8300      253
  22.8450      244
  22.8600      265
  22.8750      255
  22.8900      280
  22.9050      276
  22.9200      248
  22.9350      249
  22.9500      246
  22.9650      259
  22.9800      266
  22.9950      256
  23.0100      259
  23.0250      230
  23.0400      228
  23.0550      233
  23.0700      232
  23.0850      254
  23.1000      238
  23.1150      249
  23.1300      252
  23.1450      275
  23.1600      254
  23.1750      234
  23.1900      240
  23.2050      249
  23.2200      241
  23.2350      238
  23.2500      274
  23.2650      269
  23.2800      263
  23.2950      258
  23.3100      252
  23.3250      250
  23.3400      256
  23.3550      266
  23.3700      231
  23.3850      223
  23.4000      251
  23.4150      257
  23.4300      253
  23.4450      238
  23.4600      248
  23.4750      249
  23.4900      256
  23.5050      261
  23.5200      251
  23.5350      260
  23.5500      262
  23.5650      266
  23.5800      275
  23.5950      261
  23.6100      241
  23.6250      232
  23.6400      242
  23.6550      270
  23.6700      262
  23.6850      241
  23.7000      240
  23.7150      244
  23.7300      247
  23.7450      260
  23.7600      262
  23.7750      250
  23.7900      251
  23.8050      260
  23.8200      284
  23.8350      265
  23.8500      255
  23.8650      239
  23.8800      255
  23.8950      273
  23.9100      283
  23.9250      248
  23.9400      263
  23.9550      239
  23.9700      250
  23.9850      259
  24.0000      252
  24.0150      216
  24.0300      246
  24.0450      264
  24.0600      275
  24.0750      251
  24.0900      252
  24.1050      256
  24.1200      249
  24.1350      267
  24.1500      238
  24.1650      250
  24.1800      278
  24.1950      257
  24.2100      253
  24.2250      260
  24.2400      256
  24.2550      266
  24.2700      259
  24.2850      274
  24.3000      257
  24.3150      258
  24.3300      251
  24.3450      264
  24.3600      261
  24.3750      251
  24.3900      305
  24.4050      277
  24.4200      280
  24.4350      274
  24.4500      265
  24.4650      293
  24.4800      304
  24.4950      282
  24.5100      288
  24.5250      292
  24.5400      305
  24.5550      344
  24.5700      334
  24.5850      338
  24.6000      340
  24.6150      333
  24.6300      345
  24.6450      348
  24.6600      334
  24.6750      311
  24.6900      306
  24.7050      294
  24.7200      300
  24.7350      338
  24.7500      373
  24.7650      364
  24.7800      356
  24.7950      380
  24.8100      437
  24.8250      427
  24.8400      394
  24.8550      357
  24.8700      368
  24.8850      341
  24.9000      336
  24.9150      287
  24.9300      306
  24.9450      276
  24.9600      283
  24.9750      292
  24.9900      292
  25.0050      274
  25.0200      270
  25.0350      271
  25.0500      272
  25.0650      249
  25.0800      243
  25.0950      279
  25.1100      281
  25.1250      274
  25.1400      257
  25.1550      274
  25.1700      253
  25.1850      247
  25.2000      262
  25.2150      272
  25.2300      257
  25.2450      254
  25.2600      243
  25.2750      239
  25.2900      252
  25.3050      262
  25.3200      271
  25.3350      268
  25.3500      261
  25.3650      263
  25.3800      273
  25.3950      268
  25.4100      272
  25.4250      258
  25.4400      273
  25.4550      237
  25.4700      242
  25.4850      256
  25.5000      256
  25.5150      247
  25.5300      273
  25.5450      310
  25.5600      293
  25.5750      256
  25.5900      260
  25.6050      231
  25.6200      274
  25.6350      282
  25.6500      258
  25.6650      287
  25.6800      289
  25.6950      298
  25.7100      291
  25.7250      299
  25.7400      293
  25.7550      280
  25.7700      285
  25.7850      327
  25.8000      327
  25.8150      330
  25.8300      323
  25.8450      309
  25.8600      316
  25.8750      300
  25.8900      303
  25.9050      299
  25.9200      310
  25.9350      277
  25.9500      266
  25.9650      281
  25.9800      280
  25.9950      275
  26.0100      292
  26.0250      286
  26.0400      310
  26.0550      279
  26.0700      267
  26.0850      251
  26.1000      290
  26.1150      254
  26.1300      285
  26.1450      272
  26.1600      271
  26.1750      297
  26.1900      272
  26.2050      268
  26.2200      267
  26.2350      274
  26.2500      315
  26.2650      302
  26.2800      281
  26.2950      321
  26.3100      304
  26.3250      301
  26.3400      290
  26.3550      318
  26.3700      312
  26.3850      310
  26.4000      278
  26.4150      290
  26.4300      269
  26.4450      279
  26.4600      274
  26.4750      254
  26.4900      252
  26.5050      281
  26.5200      281
  26.5350      278
  26.5500      265
  26.5650      254
  26.5800      263
  26.5950      263
  26.6100      251
  26.6250      246
  26.6400      268
  26.6550      278
  26.6700      259
  26.6850      275
  26.7000      273
  26.7150      251
  26.7300      252
  26.7450      248
  26.7600      262
  26.7750      273
  26.7900      238
  26.8050      255
  26.8200      260
  26.8350      255
  26.8500      277
  26.8650      293
  26.8800      321
  26.8950      309
  26.9100      301
  26.9250      289
  26.9400      335
  26.9550      322
  26.9700      336
  26.9850      324
  27.0000      321
  27.0150      306
  27.0300      312
  27.0450      325
  27.0600      330
  27.0750      304
  27.0900      304
  27.1050      307
  27.1200      285
  27.1350      289
  27.1500      277
  27.1650      292
  27.1800      289
  27.1950      259
  27.2100      276
  27.2250      238
  27.2400      269
  27.2550      264
  27.2700      281
  27.2850      292
  27.3000      264
  27.3150      281
  27.3300      265
  27.3450      272
  27.3600      255
  27.3750      269
  27.3900      264
  27.4050      292
  27.4200      261
  27.4350      271
  27.4500      272
  27.4650      264
  27.4800      268
  27.4950      273
  27.5100      268
  27.5250      275
  27.5400      290
  27.5550      277
  27.5700      253
  27.5850      271
  27.6000      280
  27.6150      270
  27.6300      285
  27.6450      250
  27.6600      232
  27.6750      235
  27.6900      245
  27.7050      262
  27.7200      276
  27.7350      263
  27.7500      249
  27.7650      263
  27.7800      274
  27.7950      261
  27.8100      242
  27.8250      252
  27.8400      270
  27.8550      260
  27.8700      270
  27.8850      253
  27.9000      246
  27.9150      254
  27.9300      249
  27.9450      229
  27.9600      245
  27.9750      234
  27.9900      241
  28.0050      218
  28.0200      228
  28.0350      216
  28.0500      221
  28.0650      228
  28.0800      234
  28.0950      218
  28.1100      206
  28.1250      221
  28.1400      227
  28.1550      221
  28.1700      238
  28.1850      225
  28.2000      216
  28.2150      229
  28.2300      230
  28.2450      221
  28.2600      213
  28.2750      209
  28.2900      209
  28.3050      208
  28.3200      203
  28.3350      222
  28.3500      198
  28.3650      187
  28.3800      212
  28.3950      214
  28.4100      218
  28.4250      197
  28.4400      197
  28.4550      185
  28.4700      209
  28.4850      209
  28.5000      184
  28.5150      197
  28.5300      216
  28.5450      229
  28.5600      207
  28.5750      212
  28.5900      194
  28.6050      190
  28.6200      194
  28.6350      216
  28.6500      221
  28.6650      221
  28.6800      205
  28.6950      206
  28.7100      206
  28.7250      182
  28.7400      178
  28.7550      171
  28.7700      196
  28.7850      200
  28.8000      215
  28.8150      191
  28.8300      203
  28.8450      192
  28.8600      190
  28.8750      164
  28.8900      213
  28.9050      211
  28.9200      210
  28.9350      201
  28.9500      213
  28.9650      212
  28.9800      204
  28.9950      218
  29.0100      208
  29.0250      227
  29.0400      247
  29.0550      243
  29.0700      215
  29.0850      188
  29.1000      218
  29.1150      203
  29.1300      200
  29.1450      207
  29.1600      188
  29.1750      186
  29.1900      186
  29.2050      195
  29.2200      176
  29.2350      187
  29.2500      191
  29.2650      184
  29.2800      181
  29.2950      207
  29.3100      200
  29.3250      189
  29.3400      177
  29.3550      194
  29.3700      179
  29.3850      192
  29.4000      177
  29.4150      191
  29.4300      210
  29.4450      198
  29.4600      193
  29.4750      180
  29.4900      190
  29.5050      173
  29.5200      175
  29.5350      181
  29.5500      185
  29.5650      188
  29.5800      169
  29.5950      165
  29.6100      176
  29.6250      191
  29.6400      182
  29.6550      175
  29.6700      177
  29.6850      164
  29.7000      154
  29.7150      165
  29.7300      158
  29.7450      162
  29.7600      187
  29.7750      171
  29.7900      161
  29.8050      163
  29.8200      157
  29.8350      157
  29.8500      182
  29.8650      183
  29.8800      172
  29.8950      151
  29.9100      166
  29.9250      193
  29.9400      175
  29.9550      173
  29.9700      186
  29.9850      179
  30.0000      172
  30.0150      157
  30.0300      160
  30.0450      174
  30.0600      167
  30.0750      162
  30.0900      166
  30.1050      163
  30.1200      151
  30.1350      150
  30.1500      150
  30.1650      171
  30.1800      179
  30.1950      157
  30.2100      137
  30.2250      153
  30.2400      182
  30.2550      155
  30.2700      149
  30.2850      163
  30.3000      146
  30.3150      163
  30.3300      165
  30.3450      151
  30.3600      147
  30.3750      161
  30.3900      159
  30.4050      150
  30.4200      148
  30.4350      133
  30.4500      165
  30.4650      164
  30.4800      148
  30.4950      154
  30.5100      162
  30.5250      165
  30.5400      156
  30.5550      154
  30.5700      156
  30.5850      154
  30.6000      142
  30.6150      158
  30.6300      148
  30.6450      166
  30.6600      162
  30.6750      162
  30.6900      150
  30.7050      133
  30.7200      141
  30.7350      150
  30.7500      166
  30.7650      176
  30.7800      153
  30.7950      150
  30.8100      161
  30.8250      167
  30.8400      138
  30.8550      164
  30.8700      149
  30.8850      174
  30.9000      164
  30.9150      155
  30.9300      150
  30.9450      148
  30.9600      152
  30.9750      135
  30.9900      169
  31.0050      164
  31.0200      166
  31.0350      172
  31.0500      159
  31.0650      158
  31.0800      142
  31.0950      147
  31.1100      165
  31.1250      173
  31.1400      153
  31.1550      156
  31.1700      153
  31.1850      149
  31.2000      168
  31.2150      160
  31.2300      156
  31.2450      165
  31.2600      152
  31.2750      154
  31.2900      163
  31.3050      148
  31.3200      163
  31.3350      156
  31.3500      160
  31.3650      148
  31.3800      169
  31.3950      164
  31.4100      159
  31.4250      151
  31.4400      148
  31.4550      156
  31.4700      138
  31.4850      141
  31.5000      156
  31.5150      157
  31.5300      169
  31.5450      160
  31.5600      165
  31.5750      152
  31.5900      142
  31.6050      171
  31.6200      167
  31.6350      159
  31.6500      156
  31.6650      173
  31.6800      169
  31.6950      163
  31.7100      154
  31.7250      164
  31.7400      164
  31.7550      147
  31.7700      164
  31.7850      178
  31.8000      154
  31.8150      158
  31.8300      170
  31.8450      175
  31.8600      153
  31.8750      146
  31.8900      158
  31.9050      176
  31.9200      171
  31.9350      170
  31.9500      161
  31.9650      191
  31.9800      190
  31.9950      175
  32.0100      167
  32.0250      163
  32.0400      167
  32.0550      195
  32.0700      198
  32.0850      182
  32.1000      166
  32.1150      165
  32.1300      167
  32.1450      184
  32.1600      174
  32.1750      166
  32.1900      154
  32.2050      143
  32.2200      164
  32.2350      171
  32.2500      178
  32.2650      204
  32.2800      181
  32.2950      194
  32.3100      180
  32.3250      196
  32.3400      190
  32.3550      166
  32.3700      173
  32.3850      168
  32.4000      147
  32.4150      166
  32.4300      164
  32.4450      164
  32.4600      161
  32.4750      148
  32.4900      159
  32.5050      169
  32.5200      164
  32.5350      153
  32.5500      156
  32.5650      147
  32.5800      164
  32.5950      159
  32.6100      178
  32.6250      166
  32.6400      187
  32.6550      177
  32.6700      165
  32.6850      181
  32.7000      183
  32.7150      169
  32.7300      170
  32.7450      183
  32.7600      187
  32.7750      182
  32.7900      175
  32.8050      171
  32.8200      175
  32.8350      172
  32.8500      176
  32.8650      174
  32.8800      159
  32.8950      164
  32.9100      179
  32.9250      164
  32.9400      182
  32.9550      190
  32.9700      159
  32.9850      175
  33.0000      184
  33.0150      191
  33.0300      217
  33.0450      220
  33.0600      210
  33.0750      218
  33.0900      228
  33.1050      227
  33.1200      248
  33.1350      242
  33.1500      260
  33.1650      273
  33.1800      277
  33.1950      278
  33.2100      285
  33.2250      283
  33.2400      302
  33.2550      282
  33.2700      252
  33.2850      260
  33.3000      246
  33.3150      225
  33.3300      243
  33.3450      255
  33.3600      218
  33.3750      191
  33.3900      184
  33.4050      214
  33.4200      192
  33.4350      165
  33.4500      183
  33.4650      181
  33.4800      194
  33.4950      160
  33.5100      158
  33.5250      192
  33.5400      185
  33.5550      166
  33.5700      160
  33.5850      162
  33.6000      164
  33.6150      157
  33.6300      172
  33.6450      170
  33.6600      175
  33.6750      168
  33.6900      169
  33.7050      156
  33.7200      143
  33.7350      159
  33.7500      153
  33.7650      141
  33.7800      139
  33.7950      154
  33.8100      146
  33.8250      149
  33.8400      151
  33.8550      162
  33.8700      153
  33.8850      151
  33.9000      152
  33.9150      151
  33.9300      148
  33.9450      147
  33.9600      173
  33.9750      177
  33.9900      193
  34.0050      159
  34.0200      163
  34.0350      154
  34.0500      181
  34.0650      161
  34.0800      159
  34.0950      144
  34.1100      165
  34.1250      151
  34.1400      149
  34.1550      164
  34.1700      167
  34.1850      163
  34.2000      168
  34.2150      166
  34.2300      163
  34.2450      162
  34.2600      153
  34.2750      173
  34.2900      166
  34.3050      153
  34.3200      163
  34.3350      170
  34.3500      149
  34.3650      160
  34.3800      159
  34.3950      169
  34.4100      168
  34.4250      157
  34.4400      154
  34.4550      138
  34.4700      156
  34.4850      144
  34.5000      173
  34.5150      175
  34.5300      175
  34.5450      156
  34.5600      174
  34.5750      152
  34.5900      143
  34.6050      164
  34.6200      172
  34.6350      169
  34.6500      183
  34.6650      175
  34.6800      180
  34.6950      169
  34.7100      160
  34.7250      151
  34.7400      180
  34.7550      178
  34.7700      158
  34.7850      184
  34.8000      173
  34.8150      180
  34.8300      187
  34.8450      180
  34.8600      168
  34.8750      139
  34.8900      155
  34.9050      156
  34.9200      160
  34.9350      164
  34.9500      163
  34.9650      169
  34.9800      170
  34.9950      162
  35.0100      162
  35.0250      169
  35.0400      183
  35.0550      183
  35.0700      189
  35.0850      146
  35.1000      144
  35.1150      160
  35.1300      157
  35.1450      171
  35.1600      188
  35.1750      169
  35.1900      184
  35.2050      175
  35.2200      163
  35.2350      158
  35.2500      166
  35.2650      186
  35.2800      177
  35.2950      171
  35.3100      161
  35.3250      174
  35.3400      181
  35.3550      166
  35.3700      160
  35.3850      177
  35.4000      174
  35.4150      172
  35.4300      177
  35.4450      161
  35.4600      171
  35.4750      172
  35.4900      165
  35.5050      174
  35.5200      167
  35.5350      169
  35.5500      188
  35.5650      173
  35.5800      161
  35.5950      178
  35.6100      183
  35.6250      164
  35.6400      164
  35.6550      166
  35.6700      173
  35.6850      162
  35.7000      190
  35.7150      165
  35.7300      170
  35.7450      182
  35.7600      168
  35.7750      176
  35.7900      160
  35.8050      186
  35.8200      195
  35.8350      185
  35.8500      195
  35.8650      168
  35.8800      194
  35.8950      174
  35.9100      166
  35.9250      161
  35.9400      177
  35.9550      161
  35.9700      186
  35.9850      204
  36.0000      188
  36.0150      196
  36.0300      182
  36.0450      184
  36.0600      194
  36.0750      198
  36.0900      180
  36.1050      179
  36.1200      178
  36.1350      186
  36.1500      192
  36.1650      178
  36.1800      195
  36.1950      182
  36.2100      191
  36.2250      206
  36.2400      198
  36.2550      199
  36.2700      188
  36.2850      200
  36.3000      198
  36.3150      204
  36.3300      188
  36.3450      232
  36.3600      207
  36.3750      189
  36.3900      180
  36.4050      187
  36.4200      179
  36.4350      204
  36.4500      188
  36.4650      159
  36.4800      189
  36.4950      193
  36.5100      176
  36.5250      169
  36.5400      184
  36.5550      167
  36.5700      175
  36.5850      182
  36.6000      182
  36.6150      195
  36.6300      200
  36.6450      182
  36.6600      193
  36.6750      189
  36.6900      196
  36.7050      166
  36.7200      178
  36.7350      188
  36.7500      198
  36.7650      179
  36.7800      173
  36.7950      165
  36.8100      179
  36.8250      188
  36.8400      206
  36.8550      206
  36.8700      197
  36.8850      194
  36.9000      200
  36.9150      193
  36.9300      163
  36.9450      169
  36.9600      186
  36.9750      186
  36.9900      185
  37.0050      192
  37.0200      212
  37.0350      188
  37.0500      191
  37.0650      174
  37.0800      169
  37.0950      207
  37.1100      185
  37.1250      192
  37.1400      171
  37.1550      191
  37.1700      195
  37.1850      192
  37.2000      166
  37.2150      161
  37.2300      177
  37.2450      181
  37.2600      182
  37.2750      179
  37.2900      173
  37.3050      205
  37.3200      209
  37.3350      179
  37.3500      193
  37.3650      188
  37.3800      206
  37.3950      189
  37.4100      197
  37.4250      185
  37.4400      182
  37.4550      183
  37.4700      186
  37.4850      189
  37.5000      204
  37.5150      177
  37.5300      171
  37.5450      186
  37.5600      198
  37.5750      195
  37.5900      185
  37.6050      203
  37.6200      200
  37.6350      196
  37.6500      186
  37.6650      192
  37.6800      202
  37.6950      180
  37.7100      165
  37.7250      178
  37.7400      197
  37.7550      220
  37.7700      180
  37.7850      193
  37.8000      195
  37.8150      169
  37.8300      194
  37.8450      188
  37.8600      169
  37.8750      163
  37.8900      177
  37.9050      181
  37.9200      191
  37.9350      214
  37.9500      196
  37.9650      188
  37.9800      190
  37.9950      204
  38.0100      208
  38.0250      190
  38.0400      187
  38.0550      176
  38.0700      195
  38.0850      194
  38.1000      187
  38.1150      199
  38.1300      193
  38.1450      202
  38.1600      210
  38.1750      204
  38.1900      184
  38.2050      209
  38.2200      189
  38.2350      208
  38.2500      212
  38.2650      208
  38.2800      212
  38.2950      197
  38.3100      226
  38.3250      198
  38.3400      210
  38.3550      221
  38.3700      222
  38.3850      206
  38.4000      228
  38.4150      228
  38.4300      212
  38.4450      218
  38.4600      221
  38.4750      231
  38.4900      234
  38.5050      222
  38.5200      212
  38.5350      198
  38.5500      229
  38.5650      219
  38.5800      239
  38.5950      211
  38.6100      205
  38.6250      207
  38.6400      214
  38.6550      217
  38.6700      208
  38.6850      225
  38.7000      223
  38.7150      204
  38.7300      191
  38.7450      209
  38.7600      205
  38.7750      207
  38.7900      205
  38.8050      189
  38.8200      190
  38.8350      191
  38.8500      190
  38.8650      199
  38.8800      194
  38.8950      194
  38.9100      204
  38.9250      184
  38.9400      200
  38.9550      193
  38.9700      206
  38.9850      204
  39.0000      190
  39.0150      206
  39.0300      212
  39.0450      209
  39.0600      208
  39.0750      220
  39.0900      212
  39.1050      191
  39.1200      191
  39.1350      192
  39.1500      191
  39.1650      203
  39.1800      178
  39.1950      182
  39.2100      179
  39.2250      183
  39.2400      165
  39.2550      188
  39.2700      191
  39.2850      192
  39.3000      170
  39.3150      192
  39.3300      172
  39.3450      169
  39.3600      194
  39.3750      183
  39.3900      177
  39.4050      171
  39.4200      180
  39.4350      163
  39.4500      167
  39.4650      173
  39.4800      181
  39.4950      187
  39.5100      192
  39.5250      192
  39.5400      203
  39.5550      198
  39.5700      175
  39.5850      184
  39.6000      196
  39.6150      189
  39.6300      188
  39.6450      164
  39.6600      179
  39.6750      160
  39.6900      169
  39.7050      184
  39.7200      173
  39.7350      182
  39.7500      168
  39.7650      167
  39.7800      184
  39.7950      165
  39.8100      151
  39.8250      154
  39.8400      176
  39.8550      167
  39.8700      157
  39.8850      175
  39.9000      168
  39.9150      194
  39.9300      164
  39.9450      156
  39.9600      147
  39.9750      167
  39.9900      180
  40.0050      183
  40.0200      175
  40.0350      151
  40.0500      173
  40.0650      149
  40.0800      167
  40.0950      180
  40.1100      159
  40.1250      149
  40.1400      158
  40.1550      150
  40.1700      151
  40.1850      173
  40.2000      154
  40.2150      170
  40.2300      170
  40.2450      156
  40.2600      178
  40.2750      188
  40.2900      180
  40.3050      180
  40.3200      168
  40.3350      165
  40.3500      165
  40.3650      168
  40.3800      182
  40.3950      165
  40.4100      159
  40.4250      164
  40.4400      164
  40.4550      161
  40.4700      171
  40.4850      171
  40.5000      172
  40.5150      155
  40.5300      164
  40.5450      145
  40.5600      140
  40.5750      158
  40.5900      171
  40.6050      156
  40.6200      159
  40.6350      154
  40.6500      171
  40.6650      179
  40.6800      168
  40.6950      160
  40.7100      174
  40.7250      176
  40.7400      171
  40.7550      178
  40.7700      185
  40.7850      178
  40.8000      185
  40.8150      174
  40.8300      171
  40.8450      185
  40.8600      189
  40.8750      176
  40.8900      173
  40.9050      164
  40.9200      181
  40.9350      174
  40.9500      146
  40.9650      134
  40.9800      151
  40.9950      168
  41.0100      164
  41.0250      173
  41.0400      146
  41.0550      139
  41.0700      150
  41.0850      165
  41.1000      151
  41.1150      143
  41.1300      155
  41.1450      155
  41.1600      142
  41.1750      145
  41.1900      156
  41.2050      167
  41.2200      166
  41.2350      147
  41.2500      157
  41.2650      167
  41.2800      163
  41.2950      151
  41.3100      138
  41.3250      138
  41.3400      160
  41.3550      162
  41.3700      165
  41.3850      168
  41.4000      149
  41.4150      142
  41.4300      161
  41.4450      142
  41.4600      166
  41.4750      137
  41.4900      172
  41.5050      150
  41.5200      155
  41.5350      138
  41.5500      158
  41.5650      158
  41.5800      150
  41.5950      143
  41.6100      154
  41.6250      168
  41.6400      157
  41.6550      159
  41.6700      138
  41.6850      151
  41.7000      146
  41.7150      157
  41.7300      155
  41.7450      157
  41.7600      149
  41.7750      147
  41.7900      143
  41.8050      145
  41.8200      141
  41.8350      128
  41.8500      150
  41.8650      140
  41.8800      134
  41.8950      142
  41.9100      163
  41.9250      151
  41.9400      153
  41.9550      129
  41.9700      133
  41.9850      133
  42.0000      161
  42.0150      151
  42.0300      149
  42.0450      135
  42.0600      133
  42.0750      155
  42.0900      158
  42.1050      140
  42.1200      136
  42.1350      125
  42.1500      122
  42.1650      136
  42.1800      133
  42.1950      120
  42.2100      142
  42.2250      134
  42.2400      142
  42.2550      142
  42.2700      119
  42.2850      138
  42.3000      126
  42.3150      125
  42.3300      118
  42.3450      134
  42.3600      138
  42.3750      148
  42.3900      127
  42.4050      129
  42.4200      144
  42.4350      130
  42.4500      140
  42.4650      129
  42.4800      133
  42.4950      139
  42.5100      156
  42.5250      138
  42.5400      146
  42.5550      157
  42.5700      133
  42.5850      146
  42.6000      145
  42.6150      135
  42.6300      142
  42.6450      128
  42.6600      144
  42.6750      140
  42.6900      139
  42.7050      141
  42.7200      145
  42.7350      139
  42.7500      130
  42.7650      152
  42.7800      141
  42.7950      147
  42.8100      142
  42.8250      132
  42.8400      142
  42.8550      146
  42.8700      137
  42.8850      140
  42.9000      156
  42.9150      140
  42.9300      133
  42.9450      121
  42.9600      120
  42.9750      138
  42.9900      152
  43.0050      146
  43.0200      153
  43.0350      153
  43.0500      151
  43.0650      126
  43.0800      145
  43.0950      141
  43.1100      140
  43.1250      167
  43.1400      167
  43.1550      178
  43.1700      145
  43.1850      155
  43.2000      158
  43.2150      160
  43.2300      154
  43.2450      174
  43.2600      167
  43.2750      153
  43.2900      161
  43.3050      158
  43.3200      175
  43.3350      177
  43.3500      180
  43.3650      162
  43.3800      176
  43.3950      183
  43.4100      180
  43.4250      170
  43.4400      160
  43.4550      154
  43.4700      157
  43.4850      169
  43.5000      176
  43.5150      153
  43.5300      143
  43.5450      133
  43.5600      157
  43.5750      164
  43.5900      160
  43.6050      150
  43.6200      142
  43.6350      137
  43.6500      146
  43.6650      142
  43.6800      153
  43.6950      158
  43.7100      129
  43.7250      127
  43.7400      129
  43.7550      136
  43.7700      144
  43.7850      141
  43.8000      146
  43.8150      130
  43.8300      137
  43.8450      130
  43.8600      137
  43.8750      127
  43.8900      144
  43.9050      141
  43.9200      133
  43.9350      135
  43.9500      139
  43.9650      142
  43.9800      158
  43.9950      144
  44.0100      144
  44.0250      139
  44.0400      134
  44.0550      140
  44.0700      150
  44.0850      141
  44.1000      149
  44.1150      139
  44.1300      145
  44.1450      144
  44.1600      141
  44.1750      152
  44.1900      139
  44.2050      124
  44.2200      108
  44.2350      128
  44.2500      138
  44.2650      143
  44.2800      137
  44.2950      146
  44.3100      135
  44.3250      142
  44.3400      138
  44.3550      130
  44.3700      122
  44.3850      136
  44.4000      139
  44.4150      129
  44.4300      145
  44.4450      116
  44.4600      122
  44.4750      128
  44.4900      134
  44.5050      140
  44.5200      128
  44.5350      137
  44.5500      137
  44.5650      131
  44.5800      131
  44.5950      112
  44.6100      124
  44.6250      134
  44.6400      141
  44.6550      125
  44.6700      116
  44.6850      121
  44.7000      136
  44.7150      128
  44.7300      125
  44.7450      126
  44.7600      133
  44.7750      133
  44.7900      128
  44.8050      122
  44.8200      131
  44.8350      135
  44.8500      113
  44.8650      118
  44.8800      108
  44.8950      127
  44.9100      125
  44.9250      132
  44.9400      128
  44.9550      137
  44.9700      117
  44.9850      130
  45.0000      135
  45.0150      135
  45.0300      115
  45.0450      115
  45.0600      134
  45.0750      137
  45.0900      144
  45.1050      135
  45.1200      124
  45.1350      128
  45.1500      125
  45.1650      116
  45.1800      146
  45.1950      123
  45.2100      108
  45.2250      135
  45.2400      120
  45.2550      131
  45.2700      115
  45.2850      131
  45.3000      136
  45.3150      133
  45.3300      130
  45.3450      122
  45.3600      129
  45.3750      131
  45.3900      124
  45.4050      117
  45.4200      122
  45.4350      125
  45.4500      127
  45.4650      117
  45.4800      129
  45.4950      118
  45.5100      126
  45.5250      120
  45.5400      115
  45.5550      122
  45.5700      112
  45.5850      136
  45.6000      113
  45.6150      111
  45.6300      130
  45.6450      109
  45.6600      113
  45.6750      121
  45.6900      110
  45.7050      136
  45.7200      116
  45.7350      121
  45.7500      109
  45.7650      119
  45.7800      122
  45.7950      122
  45.8100      122
  45.8250      115
  45.8400      128
  45.8550      112
  45.8700      110
  45.8850      124
  45.9000      118
  45.9150      103
  45.9300      115
  45.9450      111
  45.9600      110
  45.9750      107
  45.9900      103
  46.0050      109
  46.0200      112
  46.0350      106
  46.0500      103
  46.0650      124
  46.0800      120
  46.0950      130
  46.1100      125
  46.1250      109
  46.1400       87
  46.1550      104
  46.1700      104
  46.1850      111
  46.2000      117
  46.2150      111
  46.2300      102
  46.2450      112
  46.2600      114
  46.2750      123
  46.2900      116
  46.3050      129
  46.3200      128
  46.3350      115
  46.3500      104
  46.3650      130
  46.3800      122
  46.3950      117
  46.4100      124
  46.4250      118
  46.4400      117
  46.4550      136
  46.4700      121
  46.4850      132
  46.5000      110
  46.5150      105
  46.5300      103
  46.5450      109
  46.5600      116
  46.5750      119
  46.5900      106
  46.6050      101
  46.6200      108
  46.6350      100
  46.6500      108
  46.6650      117
  46.6800      119
  46.6950      106
  46.7100      114
  46.7250      111
  46.7400      105
  46.7550      106
  46.7700       97
  46.7850      110
  46.8000      113
  46.8150      115
  46.8300      117
  46.8450      113
  46.8600      113
  46.8750      111
  46.8900      115
  46.9050      108
  46.9200      106
  46.9350      106
  46.9500      111
  46.9650      108
  46.9800      110
  46.9950      119
  47.0100      110
  47.0250      109
  47.0400      113
  47.0550       98
  47.0700      117
  47.0850      102
  47.1000      110
  47.1150      118
  47.1300      109
  47.1450      119
  47.1600      109
  47.1750      101
  47.1900       92
  47.2050      105
  47.2200      100
  47.2350      108
  47.2500      113
  47.2650       99
  47.2800      114
  47.2950       93
  47.3100       94
  47.3250       99
  47.3400      107
  47.3550      107
  47.3700      118
  47.3850      113
  47.4000      103
  47.4150      101
  47.4300      102
  47.4450      110
  47.4600      104
  47.4750      101
  47.4900       95
  47.5050      100
  47.5200      106
  47.5350      102
  47.5500      114
  47.5650      107
  47.5800      125
  47.5950      119
  47.6100      121
  47.6250      119
  47.6400      109
  47.6550      122
  47.6700      113
  47.6850      112
  47.7000      115
  47.7150      125
  47.7300      124
  47.7450      120
  47.7600      118
  47.7750      116
  47.7900      106
  47.8050      126
  47.8200      121
  47.8350      109
  47.8500      107
  47.8650      103
  47.8800      118
  47.8950      114
  47.9100      111
  47.9250      103
  47.9400      108
  47.9550      120
  47.9700      104
  47.9850      106
  48.0000      113
  48.0150      110
  48.0300      109
  48.0450      103
  48.0600      120
  48.0750      130
  48.0900      108
  48.1050      114
  48.1200       99
  48.1350      108
  48.1500      115
  48.1650      114
  48.1800      112
  48.1950       97
  48.2100      105
  48.2250      112
  48.2400      116
  48.2550      104
  48.2700       97
  48.2850      105
  48.3000      105
  48.3150      104
  48.3300       91
  48.3450      100
  48.3600      112
  48.3750      110
  48.3900      112
  48.4050       92
  48.4200      100
  48.4350       92
  48.4500       90
  48.4650      101
  48.4800      110
  48.4950      102
  48.5100      102
  48.5250       98
  48.5400       99
  48.5550      100
  48.5700      112
  48.5850      106
  48.6000      109
  48.6150       98
  48.6300      110
  48.6450      119
  48.6600      123
  48.6750      104
  48.6900      108
  48.7050      117
  48.7200       99
  48.7350      107
  48.7500      112
  48.7650      114
  48.7800       95
  48.7950      106
  48.8100      111
  48.8250      125
  48.8400      118
  48.8550      132
  48.8700      137
  48.8850      117
  48.9000      103
  48.9150      100
  48.9300       96
  48.9450       99
  48.9600       99
  48.9750      104
  48.9900      109
  49.0050      105
  49.0200       92
  49.0350       96
  49.0500      111
  49.0650       98
  49.0800       99
  49.0950      121
  49.1100      137
  49.1250      116
  49.1400      110
  49.1550      123
  49.1700      128
  49.1850      101
  49.2000      100
  49.2150      102
  49.2300      109
  49.2450       96
  49.2600      108
  49.2750      109
  49.2900       91
  49.3050      103
  49.3200      101
  49.3350      106
  49.3500      115
  49.3650      100
  49.3800       93
  49.3950      103
  49.4100      111
  49.4250      101
  49.4400       89
  49.4550       97
  49.4700       99
  49.4850       99
  49.5000       93
  49.5150       94
  49.5300      105
  49.5450      108
  49.5600       94
  49.5750      100
  49.5900      103
  49.6050      109
  49.6200      113
  49.6350      106
  49.6500      109
  49.6650      109
  49.6800       98
  49.6950      101
  49.7100      106
  49.7250       95
  49.7400      116
  49.7550      100
  49.7700       99
  49.7850      105
  49.8000       98
  49.8150       92
  49.8300      122
  49.8450      103
  49.8600      108
  49.8750      106
  49.8900      102
  49.9050      114
  49.9200      103
  49.9350      112
  49.9500      124
  49.9650      111
  49.9800      108
  49.9950      118
  50.0100       97
  50.0250      106
  50.0400      107
  50.0550      107
  50.0700      106
  50.0850       92
  50.1000       88
  50.1150       98
  50.1300       98
  50.1450      111
  50.1600      106
  50.1750      114
  50.1900      121
  50.2050      108
  50.2200      102
  50.2350      103
  50.2500      114
  50.2650      108
  50.2800       98
  50.2950      111
  50.3100       97
  50.3250       93
  50.3400       95
  50.3550       99
  50.3700      123
  50.3850      119
  50.4000      108
  50.4150      111
  50.4300      117
  50.4450      109
  50.4600       92
  50.4750       88
  50.4900      101
  50.5050      107
  50.5200      113
  50.5350       98
  50.5500      117
  50.5650      114
  50.5800      109
  50.5950       94
  50.6100      115
  50.6250      103
  50.6400      102
  50.6550      113
  50.6700      113
  50.6850      106
  50.7000      119
  50.7150      105
  50.7300       91
  50.7450      110
  50.7600      112
  50.7750      106
  50.7900      111
  50.8050      102
  50.8200      111
  50.8350      118
  50.8500      119
  50.8650      109
  50.8800      115
  50.8950      112
  50.9100      117
  50.9250      113
  50.9400      115
  50.9550      113
  50.9700      103
  50.9850      110
  51.0000      126
  51.0150      106
  51.0300      101
  51.0450       86
  51.0600      100
  51.0750      103
  51.0900      117
  51.1050      120
  51.1200      113
  51.1350      104
  51.1500      115
  51.1650      119
  51.1800      110
  51.1950       97
  51.2100      133
  51.2250      121
  51.2400      109
  51.2550      121
  51.2700      111
  51.2850       93
  51.3000       88
  51.3150      102
  51.3300      100
  51.3450      101
  51.3600      113
  51.3750      128
  51.3900      127
  51.4050      117
  51.4200      123
  51.4350      109
  51.4500      105
  51.4650       99
  51.4800      117
  51.4950      129
  51.5100      113
  51.5250      116
  51.5400      120
  51.5550      120
  51.5700      127
  51.5850      112
  51.6000      117
  51.6150      112
  51.6300      121
  51.6450      147
  51.6600      138
  51.6750      145
  51.6900      129
  51.7050      123
  51.7200      128
  51.7350      138
  51.7500      124
  51.7650      131
  51.7800      131
  51.7950      134
  51.8100      123
  51.8250      126
  51.8400      123
  51.8550      117
  51.8700      118
  51.8850      129
  51.9000      124
  51.9150      128
  51.9300      125
  51.9450      130
  51.9600      129
  51.9750      119
  51.9900      111
  52.0050      116
  52.0200      121
  52.0350      130
  52.0500      121
  52.0650      113
  52.0800      115
  52.0950      121
  52.1100      129
  52.1250      111
  52.1400      127
  52.1550      110
  52.1700      119
  52.1850      110
  52.2000      102
  52.2150      119
  52.2300      119
  52.2450      122
  52.2600      109
  52.2750      120
  52.2900       95
  52.3050      100
  52.3200      104
  52.3350      109
  52.3500      112
  52.3650      114
  52.3800      119
  52.3950      116
  52.4100      122
  52.4250      122
  52.4400      107
  52.4550      113
  52.4700      115
  52.4850      109
  52.5000      112
  52.5150      101
  52.5300      117
  52.5450       93
  52.5600      105
  52.5750      101
  52.5900      102
  52.6050       94
  52.6200      102
  52.6350      110
  52.6500      115
  52.6650      114
  52.6800      109
  52.6950      111
  52.7100      119
  52.7250      109
  52.7400      127
  52.7550      111
  52.7700      106
  52.7850      108
  52.8000      125
  52.8150      115
  52.8300       99
  52.8450      118
  52.8600      121
  52.8750      128
  52.8900      119
  52.9050      126
  52.9200      118
  52.9350      113
  52.9500      110
  52.9650      109
  52.9800      130
  52.9950      115
  53.0100      103
  53.0250      113
  53.0400      117
  53.0550      104
  53.0700      108
  53.0850      115
  53.1000      123
  53.1150      120
  53.1300      121
  53.1450      119
  53.1600      112
  53.1750      122
  53.1900      140
  53.2050      119
  53.2200      103
  53.2350      114
  53.2500      100
  53.2650       91
  53.2800      120
  53.2950      116
  53.3100      113
  53.3250      118
  53.3400      100
  53.3550      111
  53.3700      113
  53.3850      103
  53.4000      116
  53.4150      117
  53.4300      101
  53.4450      103
  53.4600      110
  53.4750      100
  53.4900      106
  53.5050       98
  53.5200      111
  53.5350      115
  53.5500      115
  53.5650      107
  53.5800      114
  53.5950      125
  53.6100      116
  53.6250      105
  53.6400      118
  53.6550      107
  53.6700      117
  53.6850      115
  53.7000      107
  53.7150      119
  53.7300       96
  53.7450      116
  53.7600      114
  53.7750      110
  53.7900      115
  53.8050      114
  53.8200      108
  53.8350      115
  53.8500      113
  53.8650      117
  53.8800      116
  53.8950      114
  53.9100      104
  53.9250      121
  53.9400      125
  53.9550      106
  53.9700       96
  53.9850      124
  54.0000      118
  54.0150      107
  54.0300       90
  54.0450      100
  54.0600      113
  54.0750      112
  54.0900      114
  54.1050      119
  54.1200      134
  54.1350      109
  54.1500      114
  54.1650      121
  54.1800      117
  54.1950      102
  54.2100      107
  54.2250      123
  54.2400      114
  54.2550      116
  54.2700      108
  54.2850      113
  54.3000      112
  54.3150      107
  54.3300      135
  54.3450      114
  54.3600      122
  54.3750      103
  54.3900      107
  54.4050      112
  54.4200      111
  54.4350      105
  54.4500      105
  54.4650      113
  54.4800       99
  54.4950      104
  54.5100      108
  54.5250      101
  54.5400      101
  54.5550      118
  54.5700      103
  54.5850      110
  54.6000      108
  54.6150      112
  54.6300      117
  54.6450      109
  54.6600      110
  54.6750      115
  54.6900      101
  54.7050      110
  54.7200      106
  54.7350       96
  54.7500      105
  54.7650      102
  54.7800      104
  54.7950       99
  54.8100      106
  54.8250      102
  54.8400       82
  54.8550      103
  54.8700      114
  54.8850      103
  54.9000      106
  54.9150      117
  54.9300      125
  54.9450      120
  54.9600      126
  54.9750      118
  54.9900      114
  55.0050      131
  55.0200      116
  55.0350      114
  55.0500      107
  55.0650      112
  55.0800      124
  55.0950      109
  55.1100      106
  55.1250      101
  55.1400       94
  55.1550      110
  55.1700      119
  55.1850      117
  55.2000      106
  55.2150      103
  55.2300      101
  55.2450      101
  55.2600      120
  55.2750      100
  55.2900      114
  55.3050      118
  55.3200      115
  55.3350      104
  55.3500      101
  55.3650       92
  55.3800      104
  55.3950      101
  55.4100      116
  55.4250      117
  55.4400      115
  55.4550      103
  55.4700      109
  55.4850      102
  55.5000       96
  55.5150      106
  55.5300      112
  55.5450      111
  55.5600      114
  55.5750      118
  55.5900      109
  55.6050      109
  55.6200      107
  55.6350      128
  55.6500      108
  55.6650      107
  55.6800       93
  55.6950       91
  55.7100      108
  55.7250       88
  55.7400       96
  55.7550       92
  55.7700      101
  55.7850       92
  55.8000      109
  55.8150      100
  55.8300       98
  55.8450      105
  55.8600      106
  55.8750      104
  55.8900      127
  55.9050      104
  55.9200      106
  55.9350      103
  55.9500      108
  55.9650      110
  55.9800       88
  55.9950       83
  56.0100       91
  56.0250      114
  56.0400      130
  56.0550       98
  56.0700       99
  56.0850      109
  56.1000       90
  56.1150      101
  56.1300      107
  56.1450      110
  56.1600      116
  56.1750       99
  56.1900       86
  56.2050       94
  56.2200      110
  56.2350       98
  56.2500       89
  56.2650       91
  56.2800      105
  56.2950       86
  56.3100       95
  56.3250       88
  56.3400      106
  56.3550       89
  56.3700       89
  56.3850       98
  56.4000      114
  56.4150      117
  56.4300       98
  56.4450       98
  56.4600       97
  56.4750       90
  56.4900       88
  56.5050      105
  56.5200       99
  56.5350      105
  56.5500       85
  56.5650      106
  56.5800       99
  56.5950      101
  56.6100      104
  56.6250      102
  56.6400       99
  56.6550      103
  56.6700      102
  56.6850       92
  56.7000       99
  56.7150       99
  56.7300       88
  56.7450       87
  56.7600       86
  56.7750       99
  56.7900       89
  56.8050      106
  56.8200      109
  56.8350       96
  56.8500      101
  56.8650       94
  56.8800       94
  56.8950       95
  56.9100       87
  56.9250       80
  56.9400       85
  56.9550       95
  56.9700       87
  56.9850       97
  57.0000      116
  57.0150      112
  57.0300       98
  57.0450       99
  57.0600       86
  57.0750      111
  57.0900      115
  57.1050      108
  57.1200      113
  57.1350      112
  57.1500      100
  57.1650       88
  57.1800      107
  57.1950       91
  57.2100      107
  57.2250       95
  57.2400       95
  57.2550      113
  57.2700       90
  57.2850       88
  57.3000      107
  57.3150       93
  57.3300       95
  57.3450       98
  57.3600      101
  57.3750       98
  57.3900       82
  57.4050       86
  57.4200      101
  57.4350      104
  57.4500       85
  57.4650       88
  57.4800       93
  57.4950      100
  57.5100      105
  57.5250      111
  57.5400       97
  57.5550      107
  57.5700      103
  57.5850      113
  57.6000       93
  57.6150      105
  57.6300      103
  57.6450       85
  57.6600       88
  57.6750      102
  57.6900       89
  57.7050       91
  57.7200       92
  57.7350       98
  57.7500       90
  57.7650       89
  57.7800      112
  57.7950       94
  57.8100      104
  57.8250       96
  57.8400      107
  57.8550      108
  57.8700       90
  57.8850      105
  57.9000       95
  57.9150      107
  57.9300       99
  57.9450       94
  57.9600       96
  57.9750       82
  57.9900       90
  58.0050       97
  58.0200       91
  58.0350       94
  58.0500      108
  58.0650       92
  58.0800       93
  58.0950       85
  58.1100       84
  58.1250      103
  58.1400       93
  58.1550      104
  58.1700      107
  58.1850      109
  58.2000       92
  58.2150      101
  58.2300      101
  58.2450       94
  58.2600       86
  58.2750       98
  58.2900      104
  58.3050      101
  58.3200      103
  58.3350      108
  58.3500      106
  58.3650       97
  58.3800       94
  58.3950       87
  58.4100       76
  58.4250       81
  58.4400       88
  58.4550      103
  58.4700       96
  58.4850      101
  58.5000       98
  58.5150      105
  58.5300       99
  58.5450       97
  58.5600       97
  58.5750       94
  58.5900       89
  58.6050       89
  58.6200       92
  58.6350       97
  58.6500      101
  58.6650       82
  58.6800       87
  58.6950       86
  58.7100       83
  58.7250       97
  58.7400      107
  58.7550      103
  58.7700      100
  58.7850       97
  58.8000      106
  58.8150       99
  58.8300       89
  58.8450      104
  58.8600       87
  58.8750       86
  58.8900       93
  58.9050      120
  58.9200       90
  58.9350       88
  58.9500      102
  58.9650       88
  58.9800       95
  58.9950      100
  59.0100      106
  59.0250       91
  59.0400       98
  59.0550      101
  59.0700       82
  59.0850       81
  59.1000       94
  59.1150       91
  59.1300       96
  59.1450       93
  59.1600       95
  59.1750       97
  59.1900      103
  59.2050      103
  59.2200      104
  59.2350       93
  59.2500      101
  59.2650       98
  59.2800       90
  59.2950      101
  59.3100       99
  59.3250      119
  59.3400      110
  59.3550       97
  59.3700      111
  59.3850      104
  59.4000      106
  59.4150      108
  59.4300       89
  59.4450       87
  59.4600      101
  59.4750       99
  59.4900       94
  59.5050       91
  59.5200      101
  59.5350       93
  59.5500       96
  59.5650      107
  59.5800      104
  59.5950       86
  59.6100       93
  59.6250      100
  59.6400      103
  59.6550       98
  59.6700       84
  59.6850      105
  59.7000      102
  59.7150       94
  59.7300       82
  59.7450       76
  59.7600       99
  59.7750       99
  59.7900      102
  59.8050       86
  59.8200      101
  59.8350       83
  59.8500       92
  59.8650       89
  59.8800       94
  59.8950      101
  59.9100       91
  59.9250       87
  59.9400       79
  59.9550       90
  59.9700      105
  59.9850       90
  60.0000       83
  60.0150       89
  60.0300       93
  60.0450      102
  60.0600      107
  60.0750       91
  60.0900       87
  60.1050       87
  60.1200       81
  60.1350       96
  60.1500      101
  60.1650       98
  60.1800      105
  60.1950       84
  60.2100       83
  60.2250       83
  60.2400       92
  60.2550       91
  60.2700      101
  60.2850      114
  60.3000      114
  60.3150       98
  60.3300       92
  60.3450       90
  60.3600       91
  60.3750       96
  60.3900       97
  60.4050       98
  60.4200       96
  60.4350       93
  60.4500       94
  60.4650       92
  60.4800       83
  60.4950       93
  60.5100       90
  60.5250       89
  60.5400       79
  60.5550       91
  60.5700       78
  60.5850      100
  60.6000       98
  60.6150       83
  60.6300       94
  60.6450       96
  60.6600       82
  60.6750       76
  60.6900       91
  60.7050       81
  60.7200       82
  60.7350       95
  60.7500       86
  60.7650       96
