   4.5000      162
   4.5150      169
   4.5300      155
   4.5450      147
   4.5600      159
   4.5750      152
   4.5900      157
   4.6050      150
   4.6200      144
   4.6350      142
   4.6500      153
   4.6650      158
   4.6800      159
   4.6950      155
   4.7100      156
   4.7250      153
   4.7400      156
   4.7550      157
   4.7700      148
   4.7850      142
   4.8000      160
   4.8150      165
   4.8300      168
   4.8450      164
   4.8600      180
   4.8750      160
   4.8900      161
   4.9050      152
   4.9200      166
   4.9350      169
   4.9500      175
   4.9650      160
   4.9800      155
   4.9950      170
   5.0100      188
   5.0250      159
   5.0400      161
   5.0550      158
   5.0700      162
   5.0850      161
   5.1000      173
   5.1150      174
   5.1300      195
   5.1450      191
   5.1600      168
   5.1750      175
   5.1900      174
   5.2050      197
   5.2200      171
   5.2350      160
   5.2500      171
   5.2650      149
   5.2800      166
   5.2950      158
   5.3100      150
   5.3250      154
   5.3400      162
   5.3550      146
   5.3700      148
   5.3850      176
   5.4000      163
   5.4150      165
   5.4300      186
   5.4450      162
   5.4600      168
   5.4750      172
   5.4900      167
   5.5050      170
   5.5200      150
   5.5350      169
   5.5500      165
   5.5650      171
   5.5800      179
   5.5950      174
   5.6100      175
   5.6250      159
   5.6400      177
   5.6550      159
   5.6700      155
   5.6850      162
   5.7000      169
   5.7150      175
   5.7300      175
   5.7450      180
   5.7600      167
   5.7750      172
   5.7900      181
   5.8050      172
   5.8200      173
   5.8350      170
   5.8500      174
   5.8650      174
   5.8800      161
   5.8950      185
   5.9100      172
   5.9250      172
   5.9400      168
   5.9550      169
   5.9700      175
   5.9850      178
   6.0000      154
   6.0150      172
   6.0300      173
   6.0450      167
   6.0600      166
   6.0750      198
   6.0900      203
   6.1050      209
   6.1200      196
   6.1350      205
   6.1500      178
   6.1650      189
   6.1800      192
   6.1950      173
   6.2100      186
   6.2250      204
   6.2400      217
   6.2550      214
   6.2700      198
   6.2850      195
   6.3000      186
   6.3150      187
   6.3300      193
   6.3450      194
   6.3600      194
   6.3750      227
   6.3900      212
   6.4050      212
   6.4200      221
   6.4350      241
   6.4500      232
   6.4650      233
   6.4800      234
   6.4950      224
   6.5100      228
   6.5250      227
   6.5400      234
   6.5550      240
   6.5700      212
   6.5850      232
   6.6000      232
   6.6150      224
   6.6300      237
   6.6450      226
   6.6600      267
   6.6750      286
   6.6900      268
   6.7050      265
   6.7200      274
   6.7350      304
   6.7500      281
   6.7650      299
   6.7800      329
   6.7950      332
   6.8100      383
   6.8250      423
   6.8400      454
   6.8550      473
   6.8700      494
   6.8850      505
   6.9000      566
   6.9150      609
   6.9300      658
   6.9450      709
   6.9600      743
   6.9750      818
   6.9900      883
   7.0050     1049
   7.0200     1109
   7.0350     1225
   7.0500     1298
   7.0650     1457
   7.0800     1583
   7.0950     1817
   7.1100     2005
   7.1250     2284
   7.1400     2587
   7.1550     2915
   7.1700     3367
   7.1850     3779
   7.2000     4438
   7.2150     5143
   7.2300     5688
   7.2450     5036
   7.2600     3468
   7.2750     2078
   7.2900     1190
   7.3050      753
   7.3200      608
   7.3350      528
   7.3500      461
   7.3650      463
   7.3800      433
   7.3950      397
   7.4100      384
   7.4250      398
   7.4400      411
   7.4550      434
   7.4700      426
   7.4850      488
   7.5000      466
   7.5150      522
   7.5300      534
   7.5450      585
   7.5600      609
   7.5750      662
   7.5900      706
   7.6050      826
   7.6200      889
   7.6350      905
   7.6500      991
   7.6650     1116
   7.6800     1235
   7.6950     1312
   7.7100     1545
   7.7250     1820
   7.7400     2031
   7.7550     2399
   7.7700     2887
   7.7850     3393
   7.8000     3671
   7.8150     3246
   7.8300     2298
   7.8450     1296
   7.8600      725
   7.8750      484
   7.8900      401
   7.9050      356
   7.9200      332
   7.9350      320
   7.9500      281
   7.9650      256
   7.9800      247
   7.9950      244
   8.0100      216
   8.0250      205
   8.0400      214
   8.0550      186
   8.0700      183
   8.0850      178
   8.1000      187
   8.1150      169
   8.1300      170
   8.1450      178
   8.1600      164
   8.1750      186
   8.1900      183
   8.2050      172
   8.2200      168
   8.2350      156
   8.2500      150
   8.2650      157
   8.2800      161
   8.2950      170
   8.3100      162
   8.3250      152
   8.3400      164
   8.3550      158
   8.3700      154
   8.3850      171
   8.4000      167
   8.4150      161
   8.4300      159
   8.4450      150
   8.4600      166
   8.4750      157
   8.4900      168
   8.5050      161
   8.5200      141
   8.5350      132
   8.5500      153
   8.5650      145
   8.5800      154
   8.5950      138
   8.6100      152
   8.6250      146
   8.6400      154
   8.6550      161
   8.6700      161
   8.6850      150
   8.7000      127
   8.7150      166
   8.7300      155
   8.7450      150
   8.7600      153
   8.7750      161
   8.7900      155
   8.8050      169
   8.8200      154
   8.8350      147
   8.8500      157
   8.8650      157
   8.8800      144
   8.8950      134
   8.9100      144
   8.9250      149
   8.9400      173
   8.9550      162
   8.9700      164
   8.9850      161
   9.0000      146
   9.0150      167
   9.0300      171
   9.0450      165
   9.0600      131
   9.0750      152
   9.0900      148
   9.1050      156
   9.1200      172
   9.1350      164
   9.1500      147
   9.1650      175
   9.1800      152
   9.1950      143
   9.2100      155
   9.2250      129
   9.2400      135
   9.2550      138
   9.2700      149
   9.2850      158
   9.3000      157
   9.3150      157
   9.3300      143
   9.3450      146
   9.3600      138
   9.3750      139
   9.3900      152
   9.4050      162
   9.4200      142
   9.4350      156
   9.4500      150
   9.4650      164
   9.4800      151
   9.4950      146
   9.5100      157
   9.5250      156
   9.5400      147
   9.5550      145
   9.5700      153
   9.5850      151
   9.6000      135
   9.6150      144
   9.6300      150
   9.6450      147
   9.6600      134
   9.6750      159
   9.6900      168
   9.7050      172
   9.7200      155
   9.7350      139
   9.7500      152
   9.7650      166
   9.7800      145
   9.7950      151
   9.8100      172
   9.8250      169
   9.8400      167
   9.8550      164
   9.8700      169
   9.8850      173
   9.9000      185
   9.9150      203
   9.9300      214
   9.9450      226
   9.9600      248
   9.9750      232
   9.9900      242
  10.0050      274
  10.0200      283
  10.0350      287
  10.0500      310
  10.0650      368
  10.0800      427
  10.0950      471
  10.1100      449
  10.1250      447
  10.1400      361
  10.1550      291
  10.1700      285
  10.1850      236
  10.2000      212
  10.2150      210
  10.2300      222
  10.2450      202
  10.2600      225
  10.2750      247
  10.2900      232
  10.3050      263
  10.3200      248
  10.3350      246
  10.3500      282
  10.3650      273
  10.3800      281
  10.3950      259
  10.4100      235
  10.4250      229
  10.4400      210
  10.4550      172
  10.4700      196
  10.4850      191
  10.5000      200
  10.5150      198
  10.5300      187
  10.5450      184
  10.5600      202
  10.5750      186
  10.5900      197
  10.6050      219
  10.6200      214
  10.6350      224
  10.6500      243
  10.6650      260
  10.6800      287
  10.6950      282
  10.7100      304
  10.7250      288
  10.7400      278
  10.7550      278
  10.7700      276
  10.7850      308
  10.8000      329
  10.8150      385
  10.8300      423
  10.8450      424
  10.8600      429
  10.8750      367
  10.8900      322
  10.9050      263
  10.9200      218
  10.9350      217
  10.9500      228
  10.9650      205
  10.9800      215
  10.9950      202
  11.0100      196
  11.0250      195
  11.0400      188
  11.0550      171
  11.0700      186
  11.0850      206
  11.1000      203
  11.1150      162
  11.1300      171
  11.1450      163
  11.1600      166
  11.1750      175
  11.1900      166
  11.2050      172
  11.2200      151
  11.2350      162
  11.2500      166
  11.2650      164
  11.2800      178
  11.2950      156
  11.3100      188
  11.3250      171
  11.3400      166
  11.3550      163
  11.3700      138
  11.3850      150
  11.4000      159
  11.4150      149
  11.4300      159
  11.4450      165
  11.4600      157
  11.4750      148
  11.4900      147
  11.5050      148
  11.5200      151
  11.5350      148
  11.5500      162
  11.5650      157
  11.5800      159
  11.5950      136
  11.6100      120
  11.6250      140
  11.6400      159
  11.6550      141
  11.6700      147
  11.6850      163
  11.7000      169
  11.7150      148
  11.7300      145
  11.7450      180
  11.7600      156
  11.7750      163
  11.7900      155
  11.8050      144
  11.8200      183
  11.8350      166
  11.8500      171
  11.8650      154
  11.8800      144
  11.8950      159
  11.9100      162
  11.9250      141
  11.9400      157
  11.9550      159
  11.9700      154
  11.9850      164
  12.0000      150
  12.0150      157
  12.0300      155
  12.0450      171
  12.0600      159
  12.0750      154
  12.0900      162
  12.1050      178
  12.1200      195
  12.1350      176
  12.1500      219
  12.1650      223
  12.1800      240
  12.1950      242
  12.2100      253
  12.2250      255
  12.2400      227
  12.2550      200
  12.2700      175
  12.2850      181
  12.3000      176
  12.3150      165
  12.3300      158
  12.3450      170
  12.3600      166
  12.3750      164
  12.3900      171
  12.4050      186
  12.4200      175
  12.4350      177
  12.4500      173
  12.4650      175
  12.4800      153
  12.4950      175
  12.5100      167
  12.5250      163
  12.5400      183
  12.5550      189
  12.5700      175
  12.5850      191
  12.6000      216
  12.6150      208
  12.6300      219
  12.6450      223
  12.6600      257
  12.6750      305
  12.6900      307
  12.7050      314
  12.7200      289
  12.7350      299
  12.7500      311
  12.7650      336
  12.7800      387
  12.7950      410
  12.8100      450
  12.8250      556
  12.8400      612
  12.8550      651
  12.8700      621
  12.8850      523
  12.9000      414
  12.9150      364
  12.9300      291
  12.9450      234
  12.9600      227
  12.9750      223
  12.9900      225
  13.0050      201
  13.0200      197
  13.0350      191
  13.0500      198
  13.0650      185
  13.0800      178
  13.0950      197
  13.1100      204
  13.1250      186
  13.1400      199
  13.1550      223
  13.1700      223
  13.1850      224
  13.2000      235
  13.2150      243
  13.2300      257
  13.2450      273
  13.2600      209
  13.2750      234
  13.2900      212
  13.3050      218
  13.3200      229
  13.3350      246
  13.3500      269
  13.3650      284
  13.3800      289
  13.3950      317
  13.4100      368
  13.4250      425
  13.4400      424
  13.4550      429
  13.4700      401
  13.4850      360
  13.5000      316
  13.5150      280
  13.5300      291
  13.5450      303
  13.5600      325
  13.5750      336
  13.5900      347
  13.6050      414
  13.6200      460
  13.6350      497
  13.6500      613
  13.6650      778
  13.6800      802
  13.6950      740
  13.7100      603
  13.7250      465
  13.7400      341
  13.7550      270
  13.7700      269
  13.7850      248
  13.8000      233
  13.8150      217
  13.8300      225
  13.8450      219
  13.8600      229
  13.8750      199
  13.8900      182
  13.9050      174
  13.9200      168
  13.9350      155
  13.9500      168
  13.9650      194
  13.9800      164
  13.9950      162
  14.0100      187
  14.0250      171
  14.0400      181
  14.0550      164
  14.0700      177
  14.0850      193
  14.1000      194
  14.1150      195
  14.1300      203
  14.1450      206
  14.1600      222
  14.1750      221
  14.1900      216
  14.2050      203
  14.2200      193
  14.2350      204
  14.2500      203
  14.2650      190
  14.2800      200
  14.2950      187
  14.3100      178
  14.3250      197
  14.3400      224
  14.3550      237
  14.3700      221
  14.3850      224
  14.4000      211
  14.4150      221
  14.4300      218
  14.4450      239
  14.4600      205
  14.4750      218
  14.4900      233
  14.5050      241
  14.5200      226
  14.5350      202
  14.5500      199
  14.5650      155
  14.5800      162
  14.5950      144
  14.6100      144
  14.6250      165
  14.6400      153
  14.6550      167
  14.6700      166
  14.6850      159
  14.7000      165
  14.7150      162
  14.7300      153
  14.7450      174
  14.7600      158
  14.7750      168
  14.7900      174
  14.8050      196
  14.8200      179
  14.8350      178
  14.8500      187
  14.8650      191
  14.8800      237
  14.8950      245
  14.9100      264
  14.9250      291
  14.9400      359
  14.9550      404
  14.9700      428
  14.9850      466
  15.0000      508
  15.0150      572
  15.0300      656
  15.0450      742
  15.0600      822
  15.0750      827
  15.0900      736
  15.1050      636
  15.1200      506
  15.1350      369
  15.1500      292
  15.1650      241
  15.1800      225
  15.1950      245
  15.2100      231
  15.2250      211
  15.2400      200
  15.2550      214
  15.2700      225
  15.2850      235
  15.3000      237
  15.3150      248
  15.3300      263
  15.3450      273
  15.3600      281
  15.3750      297
  15.3900      368
  15.4050      381
  15.4200      374
  15.4350      328
  15.4500      294
  15.4650      261
  15.4800      234
  15.4950      225
  15.5100      192
  15.5250      206
  15.5400      188
  15.5550      188
  15.5700      201
  15.5850      223
  15.6000      225
  15.6150      226
  15.6300      220
  15.6450      223
  15.6600      205
  15.6750      239
  15.6900      254
  15.7050      274
  15.7200      278
  15.7350      314
  15.7500      376
  15.7650      405
  15.7800      437
  15.7950      469
  15.8100      490
  15.8250      504
  15.8400      493
  15.8550      500
  15.8700      440
  15.8850      432
  15.9000      478
  15.9150      458
  15.9300      472
  15.9450      558
  15.9600      604
  15.9750      639
  15.9900      600
  16.0050      524
  16.0200      425
  16.0350      337
  16.0500      279
  16.0650      238
  16.0800      214
  16.0950      226
  16.1100      214
  16.1250      192
  16.1400      199
  16.1550      174
  16.1700      182
  16.1850      212
  16.2000      224
  16.2150      218
  16.2300      247
  16.2450      240
  16.2600      237
  16.2750      260
  16.2900      261
  16.3050      299
  16.3200      304
  16.3350      327
  16.3500      401
  16.3650      501
  16.3800      570
  16.3950      641
  16.4100      770
  16.4250      937
  16.4400     1112
  16.4550     1367
  16.4700     1397
  16.4850     1335
  16.5000     1189
  16.5150      988
  16.5300      868
  16.5450      822
  16.5600      827
  16.5750      854
  16.5900      883
  16.6050      979
  16.6200      912
  16.6350      832
  16.6500      668
  16.6650      517
  16.6800      427
  16.6950      356
  16.7100      317
  16.7250      291
  16.7400      285
  16.7550      264
  16.7700      261
  16.7850      236
  16.8000      226
  16.8150      242
  16.8300      233
  16.8450      238
  16.8600      212
  16.8750      246
  16.8900      263
  16.9050      269
  16.9200      246
  16.9350      243
  16.9500      282
  16.9650      303
  16.9800      274
  16.9950      279
  17.0100      318
  17.0250      338
  17.0400      391
  17.0550      421
  17.0700      423
  17.0850      486
  17.1000      499
  17.1150      515
  17.1300      466
  17.1450      414
  17.1600      336
  17.1750      256
  17.1900      228
  17.2050      233
  17.2200      207
  17.2350      211
  17.2500      209
  17.2650      184
  17.2800      168
  17.2950      190
  17.3100      204
  17.3250      218
  17.3400      183
  17.3550      178
  17.3700      191
  17.3850      201
  17.4000      185
  17.4150      179
  17.4300      173
  17.4450      167
  17.4600      160
  17.4750      165
  17.4900      162
  17.5050      164
  17.5200      163
  17.5350      163
  17.5500      177
  17.5650      176
  17.5800      189
  17.5950      191
  17.6100      174
  17.6250      173
  17.6400      172
  17.6550      184
  17.6700      171
  17.6850      192
  17.7000      192
  17.7150      188
  17.7300      210
  17.7450      198
  17.7600      230
  17.7750      218
  17.7900      205
  17.8050      197
  17.8200      208
  17.8350      206
  17.8500      185
  17.8650      199
  17.8800      186
  17.8950      181
  17.9100      186
  17.9250      186
  17.9400      191
  17.9550      203
  17.9700      190
  17.9850      215
  18.0000      234
  18.0150      236
  18.0300      238
  18.0450      264
  18.0600      277
  18.0750      300
  18.0900      308
  18.1050      312
  18.1200      343
  18.1350      363
  18.1500      399
  18.1650      504
  18.1800      544
  18.1950      627
  18.2100      730
  18.2250      828
  18.2400      904
  18.2550      914
  18.2700      964
  18.2850      943
  18.3000      895
  18.3150      924
  18.3300      987
  18.3450     1113
  18.3600     1217
  18.3750     1216
  18.3900     1272
  18.4050     1072
  18.4200      911
  18.4350      800
  18.4500      624
  18.4650      512
  18.4800      446
  18.4950      403
  18.5100      368
  18.5250      347
  18.5400      327
  18.5550      319
  18.5700      306
  18.5850      297
  18.6000      276
  18.6150      285
  18.6300      280
  18.6450      323
  18.6600      305
  18.6750      318
  18.6900      373
  18.7050      389
  18.7200      421
  18.7350      468
  18.7500      560
  18.7650      634
  18.7800      717
  18.7950      750
  18.8100      750
  18.8250      692
  18.8400      589
  18.8550      518
  18.8700      502
  18.8850      503
  18.9000      549
  18.9150      658
  18.9300      712
  18.9450      819
  18.9600      879
  18.9750     1017
  18.9900      935
  19.0050      882
  19.0200      733
  19.0350      572
  19.0500      444
  19.0650      356
  19.0800      307
  19.0950      295
  19.1100      273
  19.1250      247
  19.1400      234
  19.1550      242
  19.1700      249
  19.1850      211
  19.2000      194
  19.2150      191
  19.2300      192
  19.2450      170
  19.2600      208
  19.2750      194
  19.2900      213
  19.3050      217
  19.3200      197
  19.3350      211
  19.3500      215
  19.3650      215
  19.3800      221
  19.3950      231
  19.4100      222
  19.4250      236
  19.4400      217
  19.4550      201
  19.4700      217
  19.4850      217
  19.5000      202
  19.5150      219
  19.5300      220
  19.5450      213
  19.5600      215
  19.5750      215
  19.5900      226
  19.6050      218
  19.6200      233
  19.6350      248
  19.6500      233
  19.6650      224
  19.6800      242
  19.6950      245
  19.7100      287
  19.7250      275
  19.7400      315
  19.7550      324
  19.7700      388
  19.7850      474
  19.8000      535
  19.8150      578
  19.8300      693
  19.8450      832
  19.8600     1027
  19.8750     1147
  19.8900     1265
  19.9050     1332
  19.9200     1280
  19.9350     1173
  19.9500      981
  19.9650      816
  19.9800      748
  19.9950      771
  20.0100      780
  20.0250      719
  20.0400      708
  20.0550      651
  20.0700      602
  20.0850      559
  20.1000      571
  20.1150      530
  20.1300      520
  20.1450      461
  20.1600      447
  20.1750      375
  20.1900      350
  20.2050      330
  20.2200      334
  20.2350      348
  20.2500      350
  20.2650      385
  20.2800      437
  20.2950      407
  20.3100      462
  20.3250      487
  20.3400      518
  20.3550      525
  20.3700      523
  20.3850      510
  20.4000      464
  20.4150      414
  20.4300      409
  20.4450      382
  20.4600      394
  20.4750      399
  20.4900      374
  20.5050      431
  20.5200      508
  20.5350      545
  20.5500      619
  20.5650      632
  20.5800      593
  20.5950      551
  20.6100      461
  20.6250      428
  20.6400      398
  20.6550      323
  20.6700      311
  20.6850      295
  20.7000      310
  20.7150      290
  20.7300      318
  20.7450      359
  20.7600      349
  20.7750      392
  20.7900      441
  20.8050      486
  20.8200      535
  20.8350      522
  20.8500      566
  20.8650      599
  20.8800      605
  20.8950      528
  20.9100      466
  20.9250      397
  20.9400      339
  20.9550      345
  20.9700      357
  20.9850      310
  21.0000      314
  21.0150      325
  21.0300      299
  21.0450      325
  21.0600      316
  21.0750      316
  21.0900      361
  21.1050      374
  21.1200      395
  21.1350      457
  21.1500      518
  21.1650      576
  21.1800      594
  21.1950      635
  21.2100      674
  21.2250      635
  21.2400      636
  21.2550      549
  21.2700      480
  21.2850      458
  21.3000      423
  21.3150      415
  21.3300      439
  21.3450      442
  21.3600      396
  21.3750      372
  21.3900      353
  21.4050      366
  21.4200      379
  21.4350      419
  21.4500      460
  21.4650      501
  21.4800      589
  21.4950      677
  21.5100      668
  21.5250      666
  21.5400      606
  21.5550      561
  21.5700      480
  21.5850      419
  21.6000      364
  21.6150      334
  21.6300      310
  21.6450      272
  21.6600      305
  21.6750      293
  21.6900      313
  21.7050      279
  21.7200      286
  21.7350      297
  21.7500      290
  21.7650      316
  21.7800      358
  21.7950      420
  21.8100      409
  21.8250      433
  21.8400      420
  21.8550      375
  21.8700      362
  21.8850      330
  21.9000      286
  21.9150      253
  21.9300      209
  21.9450      187
  21.9600      207
  21.9750      194
  21.9900      194
  22.0050      217
  22.0200      226
  22.0350      208
  22.0500      238
  22.0650      250
  22.0800      209
  22.0950      197
  22.1100      187
  22.1250      199
  22.1400      185
  22.1550      168
  22.1700      158
  22.1850      140
  22.2000      166
  22.2150      162
  22.2300      165
  22.2450      137
  22.2600      150
  22.2750      156
  22.2900      139
  22.3050      141
  22.3200      150
  22.3350      135
  22.3500      135
  22.3650      137
  22.3800      136
  22.3950      140
  22.4100      138
  22.4250      136
  22.4400      126
  22.4550      141
  22.4700      136
  22.4850      129
  22.5000      116
  22.5150      134
  22.5300      130
  22.5450      139
  22.5600      127
  22.5750      129
  22.5900      134
  22.6050      117
  22.6200      114
  22.6350      116
  22.6500      123
  22.6650      122
  22.6800      125
  22.6950      132
  22.7100      122
  22.7250      125
  22.7400      142
  22.7550      135
  22.7700      124
  22.7850      136
  22.8000      135
  22.8150      148
  22.8300      135
  22.8450      124
  22.8600      147
  22.8750      154
  22.8900      143
  22.9050      128
  22.9200      147
  22.9350      144
  22.9500      145
  22.9650      133
  22.9800      136
  22.9950      133
  23.0100      125
  23.0250      132
  23.0400      146
  23.0550      150
  23.0700      128
  23.0850      127
  23.1000      152
  23.1150      161
  23.1300      161
  23.1450      135
  23.1600      137
  23.1750      158
  23.1900      134
  23.2050      133
  23.2200      147
  23.2350      147
  23.2500      156
  23.2650      185
  23.2800      147
  23.2950      155
  23.3100      180
  23.3250      188
  23.3400      190
  23.3550      193
  23.3700      182
  23.3850      177
  23.4000      167
  23.4150      159
  23.4300      168
  23.4450      145
  23.4600      146
  23.4750      143
  23.4900      141
  23.5050      151
  23.5200      151
  23.5350      147
  23.5500      146
  23.5650      144
  23.5800      140
  23.5950      140
  23.6100      148
  23.6250      163
  23.6400      156
  23.6550      159
  23.6700      164
  23.6850      139
  23.7000      160
  23.7150      163
  23.7300      159
  23.7450      180
  23.7600      194
  23.7750      202
  23.7900      198
  23.8050      191
  23.8200      204
  23.8350      200
  23.8500      201
  23.8650      192
  23.8800      207
  23.8950      217
  23.9100      242
  23.9250      254
  23.9400      295
  23.9550      289
  23.9700      338
  23.9850      360
  24.0000      370
  24.0150      355
  24.0300      332
  24.0450      319
  24.0600      322
  24.0750      288
  24.0900      298
  24.1050      307
  24.1200      299
  24.1350      293
  24.1500      268
  24.1650      272
  24.1800      255
  24.1950      243
  24.2100      207
  24.2250      223
  24.2400      195
  24.2550      187
  24.2700      168
  24.2850      159
  24.3000      195
  24.3150      198
  24.3300      208
  24.3450      226
  24.3600      232
  24.3750      225
  24.3900      255
  24.4050      240
  24.4200      289
  24.4350      295
  24.4500      303
  24.4650      331
  24.4800      390
  24.4950      421
  24.5100      446
  24.5250      518
  24.5400      585
  24.5550      702
  24.5700      747
  24.5850      800
  24.6000      803
  24.6150      752
  24.6300      641
  24.6450      506
  24.6600      414
  24.6750      362
  24.6900      292
  24.7050      268
  24.7200      292
  24.7350      273
  24.7500      280
  24.7650      318
  24.7800      352
  24.7950      387
  24.8100      408
  24.8250      416
  24.8400      399
  24.8550      362
  24.8700      322
  24.8850      328
  24.9000      269
  24.9150      275
  24.9300      290
  24.9450      302
  24.9600      315
  24.9750      348
  24.9900      336
  25.0050      334
  25.0200      293
  25.0350      274
  25.0500      256
  25.0650      249
  25.0800      223
  25.0950      210
  25.1100      195
  25.1250      172
  25.1400      192
  25.1550      195
  25.1700      213
  25.1850      202
  25.2000      218
  25.2150      198
  25.2300      204
  25.2450      208
  25.2600      205
  25.2750      196
  25.2900      207
  25.3050      193
  25.3200      192
  25.3350      193
  25.3500      191
  25.3650      195
  25.3800      168
  25.3950      199
  25.4100      208
  25.4250      225
  25.4400      230
  25.4550      253
  25.4700      229
  25.4850      253
  25.5000      279
  25.5150      282
  25.5300      264
  25.5450      273
  25.5600      246
  25.5750      228
  25.5900      233
  25.6050      213
  25.6200      207
  25.6350      206
  25.6500      227
  25.6650      201
  25.6800      204
  25.6950      240
  25.7100      244
  25.7250      262
  25.7400      310
  25.7550      327
  25.7700      379
  25.7850      399
  25.8000      443
  25.8150      457
  25.8300      504
  25.8450      527
  25.8600      491
  25.8750      388
  25.8900      373
  25.9050      317
  25.9200      287
  25.9350      262
  25.9500      248
  25.9650      226
  25.9800      209
  25.9950      217
  26.0100      211
  26.0250      187
  26.0400      199
  26.0550      204
  26.0700      218
  26.0850      197
  26.1000      185
  26.1150      180
  26.1300      180
  26.1450      178
  26.1600      183
  26.1750      193
  26.1900      193
  26.2050      186
  26.2200      167
  26.2350      185
  26.2500      184
  26.2650      207
  26.2800      200
  26.2950      200
  26.3100      205
  26.3250      208
  26.3400      239
  26.3550      233
  26.3700      229
  26.3850      220
  26.4000      206
  26.4150      231
  26.4300      250
  26.4450      217
  26.4600      219
  26.4750      209
  26.4900      198
  26.5050      224
  26.5200      236
  26.5350      252
  26.5500      286
  26.5650      294
  26.5800      330
  26.5950      380
  26.6100      470
  26.6250      584
  26.6400      632
  26.6550      617
  26.6700      634
  26.6850      571
  26.7000      453
  26.7150      382
  26.7300      300
  26.7450      261
  26.7600      271
  26.7750      246
  26.7900      231
  26.8050      235
  26.8200      239
  26.8350      242
  26.8500      241
  26.8650      275
  26.8800      262
  26.8950      276
  26.9100      299
  26.9250      315
  26.9400      333
  26.9550      351
  26.9700      418
  26.9850      437
  27.0000      453
  27.0150      462
  27.0300      454
  27.0450      423
  27.0600      359
  27.0750      324
  27.0900      297
  27.1050      291
  27.1200      289
  27.1350      261
  27.1500      251
  27.1650      250
  27.1800      244
  27.1950      237
  27.2100      245
  27.2250      245
  27.2400      224
  27.2550      232
  27.2700      243
  27.2850      282
  27.3000      297
  27.3150      334
  27.3300      373
  27.3450      465
  27.3600      549
  27.3750      584
  27.3900      683
  27.4050      737
  27.4200      711
  27.4350      712
  27.4500      638
  27.4650      566
  27.4800      518
  27.4950      444
  27.5100      386
  27.5250      377
  27.5400      373
  27.5550      382
  27.5700      415
  27.5850      425
  27.6000      447
  27.6150      421
  27.6300      389
  27.6450      388
  27.6600      402
  27.6750      405
  27.6900      381
  27.7050      384
  27.7200      370
  27.7350      343
  27.7500      331
  27.7650      289
  27.7800      272
  27.7950      258
  27.8100      245
  27.8250      219
  27.8400      217
  27.8550      191
  27.8700      201
  27.8850      205
  27.9000      192
  27.9150      183
  27.9300      172
  27.9450      170
  27.9600      162
  27.9750      165
  27.9900      179
  28.0050      183
  28.0200      171
  28.0350      158
  28.0500      176
  28.0650      186
  28.0800      189
  28.0950      172
  28.1100      172
  28.1250      166
  28.1400      160
  28.1550      166
  28.1700      153
  28.1850      170
  28.2000      170
  28.2150      163
  28.2300      172
  28.2450      174
  28.2600      193
  28.2750      183
  28.2900      193
  28.3050      204
  28.3200      177
  28.3350      184
  28.3500      183
  28.3650      176
  28.3800      179
  28.3950      183
  28.4100      186
  28.4250      211
  28.4400      202
  28.4550      192
  28.4700      183
  28.4850      176
  28.5000      166
  28.5150      150
  28.5300      142
  28.5450      168
  28.5600      162
  28.5750      136
  28.5900      163
  28.6050      169
  28.6200      157
  28.6350      149
  28.6500      181
  28.6650      168
  28.6800      183
  28.6950      190
  28.7100      204
  28.7250      195
  28.7400      216
  28.7550      193
  28.7700      160
  28.7850      151
  28.8000      145
  28.8150      141
  28.8300      154
  28.8450      151
  28.8600      143
  28.8750      146
  28.8900      149
  28.9050      149
  28.9200      133
  28.9350      144
  28.9500      146
  28.9650      148
  28.9800      154
  28.9950      162
  29.0100      198
  29.0250      183
  29.0400      194
  29.0550      183
  29.0700      168
  29.0850      168
  29.1000      145
  29.1150      165
  29.1300      137
  29.1450      151
  29.1600      130
  29.1750      138
  29.1900      117
  29.2050      130
  29.2200      122
  29.2350      135
  29.2500      137
  29.2650      140
  29.2800      143
  29.2950      159
  29.3100      125
  29.3250      129
  29.3400      133
  29.3550      147
  29.3700      144
  29.3850      138
  29.4000      149
  29.4150      159
  29.4300      150
  29.4450      135
  29.4600      126
  29.4750      124
  29.4900      142
  29.5050      140
  29.5200      124
  29.5350      122
  29.5500      136
  29.5650      132
  29.5800      149
  29.5950      130
  29.6100      146
  29.6250      160
  29.6400      133
  29.6550      136
  29.6700      118
  29.6850      131
  29.7000      123
  29.7150      108
  29.7300      108
  29.7450      121
  29.7600      117
  29.7750      127
  29.7900      110
  29.8050      113
  29.8200      109
  29.8350       97
  29.8500      109
  29.8650      125
  29.8800      134
  29.8950      130
  29.9100      137
  29.9250      137
  29.9400      129
  29.9550      129
  29.9700      121
  29.9850      109
  30.0000      117
  30.0150      132
  30.0300      131
  30.0450      133
  30.0600      132
  30.0750      135
  30.0900      125
  30.1050      120
  30.1200      108
  30.1350      127
  30.1500      116
  30.1650      101
  30.1800      122
  30.1950      129
  30.2100      131
  30.2250      151
  30.2400      138
  30.2550      143
  30.2700      149
  30.2850      140
  30.3000      138
  30.3150      151
  30.3300      163
  30.3450      167
  30.3600      159
  30.3750      203
  30.3900      207
  30.4050      213
  30.4200      200
  30.4350      220
  30.4500      197
  30.4650      190
  30.4800      186
  30.4950      152
  30.5100      168
  30.5250      157
  30.5400      156
  30.5550      152
  30.5700      161
  30.5850      138
  30.6000      147
  30.6150      168
  30.6300      156
  30.6450      150
  30.6600      157
  30.6750      154
  30.6900      139
  30.7050      132
  30.7200      136
  30.7350      127
  30.7500      126
  30.7650      123
  30.7800      112
  30.7950      113
  30.8100      112
  30.8250      133
  30.8400      139
  30.8550      149
  30.8700      134
  30.8850      124
  30.9000      150
  30.9150      125
  30.9300      137
  30.9450      158
  30.9600      156
  30.9750      160
  30.9900      157
  31.0050      176
  31.0200      191
  31.0350      202
  31.0500      194
  31.0650      178
  31.0800      187
  31.0950      175
  31.1100      191
  31.1250      204
  31.1400      208
  31.1550      206
  31.1700      195
  31.1850      178
  31.2000      178
  31.2150      172
  31.2300      162
  31.2450      140
  31.2600      170
  31.2750      141
  31.2900      149
  31.3050      145
  31.3200      139
  31.3350      131
  31.3500      142
  31.3650      148
  31.3800      143
  31.3950      138
  31.4100      153
  31.4250      159
  31.4400      185
  31.4550      184
  31.4700      180
  31.4850      179
  31.5000      184
  31.5150      166
  31.5300      164
  31.5450      166
  31.5600      161
  31.5750      148
  31.5900      143
  31.6050      150
  31.6200      148
  31.6350      155
  31.6500      162
  31.6650      154
  31.6800      137
  31.6950      134
  31.7100      136
  31.7250      158
  31.7400      149
  31.7550      168
  31.7700      145
  31.7850      166
  31.8000      167
  31.8150      169
  31.8300      161
  31.8450      167
  31.8600      157
  31.8750      185
  31.8900      184
  31.9050      189
  31.9200      184
  31.9350      215
  31.9500      209
  31.9650      210
  31.9800      216
  31.9950      211
  32.0100      196
  32.0250      179
  32.0400      186
  32.0550      189
  32.0700      177
  32.0850      175
  32.1000      165
  32.1150      129
  32.1300      144
  32.1450      133
  32.1600      159
  32.1750      159
  32.1900      142
  32.2050      141
  32.2200      162
  32.2350      151
  32.2500      152
  32.2650      164
  32.2800      176
  32.2950      196
  32.3100      186
  32.3250      180
  32.3400      197
  32.3550      202
  32.3700      192
  32.3850      186
  32.4000      185
  32.4150      170
  32.4300      163
  32.4450      155
  32.4600      157
  32.4750      149
  32.4900      163
  32.5050      160
  32.5200      141
  32.5350      133
  32.5500      128
  32.5650      124
  32.5800      149
  32.5950      158
  32.6100      137
  32.6250      155
  32.6400      149
  32.6550      159
  32.6700      149
  32.6850      144
  32.7000      144
  32.7150      167
  32.7300      161
  32.7450      145
  32.7600      134
  32.7750      137
  32.7900      139
  32.8050      128
  32.8200      119
  32.8350      130
  32.8500      112
  32.8650      121
  32.8800      129
  32.8950      123
  32.9100      132
  32.9250      124
  32.9400      133
  32.9550      141
  32.9700      144
  32.9850      157
  33.0000      146
  33.0150      129
  33.0300      149
  33.0450      152
  33.0600      161
  33.0750      173
  33.0900      161
  33.1050      169
  33.1200      191
  33.1350      197
  33.1500      221
  33.1650      249
  33.1800      250
  33.1950      253
  33.2100      255
  33.2250      276
  33.2400      243
  33.2550      242
  33.2700      218
  33.2850      196
  33.3000      184
  33.3150      186
  33.3300      193
  33.3450      184
  33.3600      162
  33.3750      175
  33.3900      155
  33.4050      154
  33.4200      166
  33.4350      158
  33.4500      177
  33.4650      165
  33.4800      170
  33.4950      169
  33.5100      171
  33.5250      164
  33.5400      156
  33.5550      181
  33.5700      170
  33.5850      179
  33.6000      157
  33.6150      176
  33.6300      183
  33.6450      181
  33.6600      174
  33.6750      153
  33.6900      154
  33.7050      164
  33.7200      165
  33.7350      153
  33.7500      146
  33.7650      143
  33.7800      131
  33.7950      143
  33.8100      138
  33.8250      123
  33.8400      136
  33.8550      144
  33.8700      142
  33.8850      143
  33.9000      146
  33.9150      125
  33.9300      143
  33.9450      154
  33.9600      136
  33.9750      113
  33.9900      128
  34.0050      134
  34.0200      135
  34.0350      156
  34.0500      140
  34.0650      169
  34.0800      151
  34.0950      153
  34.1100      156
  34.1250      149
  34.1400      163
  34.1550      177
  34.1700      161
  34.1850      154
  34.2000      159
  34.2150      163
  34.2300      156
  34.2450      151
  34.2600      154
  34.2750      165
  34.2900      168
  34.3050      143
  34.3200      148
  34.3350      164
  34.3500      165
  34.3650      163
  34.3800      175
  34.3950      196
  34.4100      176
  34.4250      195
  34.4400      201
  34.4550      203
  34.4700      168
  34.4850      157
  34.5000      182
  34.5150      186
  34.5300      183
  34.5450      211
  34.5600      198
  34.5750      197
  34.5900      212
  34.6050      197
  34.6200      216
  34.6350      208
  34.6500      205
  34.6650      202
  34.6800      207
  34.6950      157
  34.7100      146
  34.7250      146
  34.7400      165
  34.7550      163
  34.7700      140
  34.7850      112
  34.8000      128
  34.8150      125
  34.8300      132
  34.8450      128
  34.8600      123
  34.8750      134
  34.8900      125
  34.9050      119
  34.9200      123
  34.9350      127
  34.9500      133
  34.9650      150
  34.9800      134
  34.9950      134
  35.0100      129
  35.0250      121
  35.0400      117
  35.0550      131
  35.0700      128
  35.0850      130
  35.1000      128
  35.1150      132
  35.1300      122
  35.1450      137
  35.1600      152
  35.1750      136
  35.1900      150
  35.2050      148
  35.2200      157
  35.2350      156
  35.2500      174
  35.2650      175
  35.2800      186
  35.2950      165
  35.3100      200
  35.3250      207
  35.3400      207
  35.3550      200
  35.3700      167
  35.3850      180
  35.4000      153
  35.4150      165
  35.4300      170
  35.4450      151
  35.4600      146
  35.4750      157
  35.4900      171
  35.5050      167
  35.5200      183
  35.5350      180
  35.5500      195
  35.5650      215
  35.5800      222
  35.5950      202
  35.6100      205
  35.6250      219
  35.6400      191
  35.6550      176
  35.6700      178
  35.6850      162
  35.7000      149
  35.7150      176
  35.7300      164
  35.7450      155
  35.7600      157
  35.7750      141
  35.7900      155
  35.8050      159
  35.8200      141
  35.8350      144
  35.8500      166
  35.8650      167
  35.8800      164
  35.8950      191
  35.9100      190
  35.9250      182
  35.9400      179
  35.9550      189
  35.9700      189
  35.9850      185
  36.0000      180
  36.0150      200
  36.0300      215
  36.0450      178
  36.0600      166
  36.0750      189
  36.0900      189
  36.1050      207
  36.1200      210
  36.1350      193
  36.1500      196
  36.1650      199
  36.1800      222
  36.1950      196
  36.2100      187
  36.2250      211
  36.2400      198
  36.2550      235
  36.2700      239
  36.2850      279
  36.3000      262
  36.3150      264
  36.3300      288
  36.3450      328
  36.3600      321
  36.3750      335
  36.3900      353
  36.4050      362
  36.4200      348
  36.4350      314
  36.4500      303
  36.4650      298
  36.4800      280
  36.4950      273
  36.5100      288
  36.5250      257
  36.5400      248
  36.5550      214
  36.5700      226
  36.5850      205
  36.6000      224
  36.6150      212
  36.6300      222
  36.6450      217
  36.6600      187
  36.6750      187
  36.6900      203
  36.7050      196
  36.7200      205
  36.7350      189
  36.7500      196
  36.7650      182
  36.7800      173
  36.7950      175
  36.8100      152
  36.8250      160
  36.8400      139
  36.8550      160
  36.8700      158
  36.8850      159
  36.9000      152
  36.9150      160
  36.9300      160
  36.9450      162
  36.9600      166
  36.9750      192
  36.9900      185
  37.0050      178
  37.0200      182
  37.0350      201
  37.0500      171
  37.0650      170
  37.0800      170
  37.0950      167
  37.1100      175
  37.1250      156
  37.1400      140
  37.1550      160
  37.1700      164
  37.1850      164
  37.2000      169
  37.2150      202
  37.2300      221
  37.2450      198
  37.2600      185
  37.2750      209
  37.2900      235
  37.3050      227
  37.3200      210
  37.3350      235
  37.3500      223
  37.3650      215
  37.3800      217
  37.3950      190
  37.4100      186
  37.4250      178
  37.4400      167
  37.4550      173
  37.4700      178
  37.4850      180
  37.5000      187
  37.5150      200
  37.5300      197
  37.5450      186
  37.5600      186
  37.5750      166
  37.5900      173
  37.6050      179
  37.6200      168
  37.6350      176
  37.6500      186
  37.6650      158
  37.6800      165
  37.6950      184
  37.7100      174
  37.7250      164
  37.7400      187
  37.7550      186
  37.7700      163
  37.7850      170
  37.8000      180
  37.8150      173
  37.8300      172
  37.8450      186
  37.8600      180
  37.8750      201
  37.8900      212
  37.9050      203
  37.9200      202
  37.9350      196
  37.9500      209
  37.9650      241
  37.9800      208
  37.9950      191
  38.0100      195
  38.0250      189
  38.0400      178
  38.0550      193
  38.0700      196
  38.0850      202
  38.1000      208
  38.1150      202
  38.1300      204
  38.1450      219
  38.1600      236
  38.1750      236
  38.1900      231
  38.2050      219
  38.2200      207
  38.2350      207
  38.2500      213
  38.2650      182
  38.2800      162
  38.2950      175
  38.3100      183
  38.3250      185
  38.3400      152
  38.3550      165
  38.3700      182
  38.3850      175
  38.4000      203
  38.4150      184
  38.4300      174
  38.4450      209
  38.4600      176
  38.4750      202
  38.4900      202
  38.5050      194
  38.5200      198
  38.5350      183
  38.5500      180
  38.5650      189
  38.5800      183
  38.5950      178
  38.6100      166
  38.6250      152
  38.6400      136
  38.6550      149
  38.6700      163
  38.6850      147
  38.7000      145
  38.7150      155
  38.7300      158
  38.7450      185
  38.7600      166
  38.7750      160
  38.7900      173
  38.8050      190
  38.8200      179
  38.8350      178
  38.8500      171
  38.8650      190
  38.8800      177
  38.8950      207
  38.9100      218
  38.9250      199
  38.9400      189
  38.9550      207
  38.9700      171
  38.9850      188
  39.0000      186
  39.0150      206
  39.0300      187
  39.0450      199
  39.0600      199
  39.0750      169
  39.0900      172
  39.1050      188
  39.1200      179
  39.1350      163
  39.1500      164
  39.1650      158
  39.1800      143
  39.1950      164
  39.2100      143
  39.2250      133
  39.2400      140
  39.2550      122
  39.2700      131
  39.2850      127
  39.3000      119
  39.3150      128
  39.3300      142
  39.3450      149
  39.3600      147
  39.3750      152
  39.3900      131
  39.4050      125
  39.4200      127
  39.4350      131
  39.4500      153
  39.4650      153
  39.4800      159
  39.4950      149
  39.5100      140
  39.5250      149
  39.5400      158
  39.5550      154
  39.5700      163
  39.5850      147
  39.6000      149
  39.6150      146
  39.6300      165
  39.6450      175
  39.6600      183
  39.6750      159
  39.6900      153
  39.7050      157
  39.7200      150
  39.7350      151
  39.7500      150
  39.7650      153
  39.7800      157
  39.7950      160
  39.8100      142
  39.8250      148
  39.8400      160
  39.8550      161
  39.8700      143
  39.8850      148
  39.9000      163
  39.9150      152
  39.9300      151
  39.9450      152
  39.9600      149
  39.9750      156
  39.9900      147
  40.0050      147
  40.0200      147
  40.0350      137
  40.0500      157
  40.0650      163
  40.0800      165
  40.0950      162
  40.1100      133
  40.1250      140
  40.1400      126
  40.1550      142
  40.1700      149
  40.1850      140
  40.2000      131
  40.2150      146
  40.2300      145
  40.2450      149
  40.2600      163
  40.2750      136
  40.2900      144
  40.3050      147
  40.3200      159
  40.3350      164
  40.3500      151
  40.3650      158
  40.3800      159
  40.3950      147
  40.4100      157
  40.4250      151
  40.4400      165
  40.4550      178
  40.4700      183
  40.4850      171
  40.5000      162
  40.5150      148
  40.5300      156
  40.5450      178
  40.5600      152
  40.5750      164
  40.5900      153
  40.6050      156
  40.6200      162
  40.6350      189
  40.6500      174
  40.6650      194
  40.6800      165
  40.6950      167
  40.7100      172
  40.7250      192
  40.7400      191
  40.7550      179
  40.7700      150
  40.7850      160
  40.8000      146
  40.8150      159
  40.8300      164
  40.8450      168
  40.8600      180
  40.8750      186
  40.8900      169
  40.9050      162
  40.9200      157
  40.9350      154
  40.9500      134
  40.9650      144
  40.9800      134
  40.9950      123
  41.0100      125
  41.0250      137
  41.0400      130
  41.0550      137
  41.0700      115
  41.0850      119
  41.1000      125
  41.1150      127
  41.1300      139
  41.1450      137
  41.1600      140
  41.1750      141
  41.1900      139
  41.2050      109
  41.2200      110
  41.2350      138
  41.2500      157
  41.2650      148
  41.2800      132
  41.2950      137
  41.3100      152
  41.3250      148
  41.3400      146
  41.3550      181
  41.3700      168
  41.3850      167
  41.4000      175
  41.4150      188
  41.4300      182
  41.4450      165
  41.4600      198
  41.4750      165
  41.4900      174
  41.5050      171
  41.5200      173
  41.5350      167
  41.5500      156
  41.5650      166
  41.5800      152
  41.5950      165
  41.6100      167
  41.6250      160
  41.6400      144
  41.6550      151
  41.6700      146
  41.6850      129
  41.7000      142
  41.7150      137
  41.7300      131
  41.7450      137
  41.7600      140
  41.7750      136
  41.7900      142
  41.8050      130
  41.8200      139
  41.8350      124
  41.8500      139
  41.8650      140
  41.8800      155
  41.8950      159
  41.9100      142
  41.9250      129
  41.9400      152
  41.9550      144
  41.9700      166
  41.9850      151
  42.0000      150
  42.0150      130
  42.0300      146
  42.0450      143
  42.0600      150
  42.0750      154
  42.0900      155
  42.1050      166
  42.1200      136
  42.1350      150
  42.1500      165
  42.1650      150
  42.1800      141
  42.1950      174
  42.2100      160
  42.2250      170
  42.2400      163
  42.2550      163
  42.2700      164
  42.2850      161
  42.3000      162
  42.3150      175
  42.3300      182
  42.3450      174
  42.3600      185
  42.3750      166
  42.3900      142
  42.4050      145
  42.4200      146
  42.4350      147
  42.4500      152
  42.4650      138
  42.4800      137
  42.4950      127
  42.5100      144
  42.5250      137
  42.5400      140
  42.5550      134
  42.5700      140
  42.5850      128
  42.6000      134
  42.6150      129
  42.6300       96
  42.6450      128
  42.6600      136
  42.6750      146
  42.6900      140
  42.7050      162
  42.7200      145
  42.7350      156
  42.7500      159
  42.7650      158
  42.7800      157
  42.7950      157
  42.8100      159
  42.8250      171
  42.8400      183
  42.8550      190
  42.8700      181
  42.8850      172
  42.9000      204
  42.9150      189
  42.9300      170
  42.9450      173
  42.9600      160
  42.9750      141
  42.9900      146
  43.0050      138
  43.0200      148
  43.0350      141
  43.0500      135
  43.0650      155
  43.0800      137
  43.0950      135
  43.1100      139
  43.1250      140
  43.1400      152
  43.1550      162
  43.1700      148
  43.1850      155
  43.2000      140
  43.2150      143
  43.2300      182
  43.2450      182
  43.2600      164
  43.2750      158
  43.2900      155
  43.3050      153
  43.3200      165
  43.3350      148
  43.3500      171
  43.3650      166
  43.3800      139
  43.3950      140
  43.4100      155
  43.4250      136
  43.4400      148
  43.4550      142
  43.4700      166
  43.4850      170
  43.5000      176
  43.5150      147
  43.5300      153
  43.5450      150
  43.5600      165
  43.5750      154
  43.5900      142
  43.6050      141
  43.6200      130
  43.6350      139
  43.6500      145
  43.6650      149
  43.6800      132
  43.6950      128
  43.7100      150
  43.7250      146
  43.7400      149
  43.7550      139
  43.7700      146
  43.7850      154
  43.8000      137
  43.8150      157
  43.8300      173
  43.8450      155
  43.8600      127
  43.8750      139
  43.8900      121
  43.9050      124
  43.9200      125
  43.9350      123
  43.9500      115
  43.9650      132
  43.9800      125
  43.9950      125
  44.0100      134
  44.0250      136
  44.0400      136
  44.0550      131
  44.0700      131
  44.0850      130
  44.1000      137
  44.1150      136
  44.1300      133
  44.1450      120
  44.1600      133
  44.1750      109
  44.1900      102
  44.2050      113
  44.2200      122
  44.2350      117
  44.2500      115
  44.2650      115
  44.2800      121
  44.2950      127
  44.3100      130
  44.3250      132
  44.3400      143
  44.3550      140
  44.3700      131
  44.3850      129
  44.4000      122
  44.4150      125
  44.4300      133
  44.4450      152
  44.4600      162
  44.4750      155
  44.4900      154
  44.5050      162
  44.5200      166
  44.5350      164
  44.5500      146
  44.5650      141
  44.5800      149
  44.5950      121
  44.6100      127
  44.6250      136
  44.6400      141
  44.6550      129
  44.6700      139
  44.6850      122
  44.7000      114
  44.7150      100
  44.7300      121
  44.7450      109
  44.7600      118
  44.7750      114
  44.7900      117
  44.8050      114
  44.8200      115
  44.8350      122
  44.8500       98
  44.8650      100
  44.8800      119
  44.8950      108
  44.9100      107
  44.9250      127
  44.9400      114
  44.9550      101
  44.9700      117
  44.9850      109
  45.0000      110
  45.0150      122
  45.0300      126
  45.0450      113
  45.0600      123
  45.0750      120
  45.0900      108
  45.1050      113
  45.1200      112
  45.1350      107
  45.1500      108
  45.1650      109
  45.1800      103
  45.1950       98
  45.2100      100
  45.2250      121
  45.2400      113
  45.2550      125
  45.2700      133
  45.2850      140
  45.3000      132
  45.3150      120
  45.3300      111
  45.3450      124
  45.3600      110
  45.3750      119
  45.3900      110
  45.4050      112
  45.4200      127
  45.4350      119
  45.4500      138
  45.4650      110
  45.4800      128
  45.4950      131
  45.5100      130
  45.5250      121
  45.5400      133
  45.5550      130
  45.5700      119
  45.5850      110
  45.6000      115
  45.6150      109
  45.6300      118
  45.6450      120
  45.6600      111
  45.6750       99
  45.6900      103
  45.7050      107
  45.7200       91
  45.7350       93
  45.7500      102
  45.7650       93
  45.7800       93
  45.7950      103
  45.8100       93
  45.8250      107
  45.8400      107
  45.8550      103
  45.8700      111
  45.8850      103
  45.9000      105
  45.9150       98
  45.9300      104
  45.9450      118
  45.9600      116
  45.9750      102
  45.9900      114
  46.0050      113
  46.0200      109
  46.0350      121
  46.0500      116
  46.0650      104
  46.0800      111
  46.0950      108
  46.1100       94
  46.1250      107
  46.1400      114
  46.1550      120
  46.1700      112
  46.1850       93
  46.2000       94
  46.2150       98
  46.2300       95
  46.2450       99
  46.2600      119
  46.2750      105
  46.2900       99
  46.3050       92
  46.3200       90
  46.3350      103
  46.3500       84
  46.3650      109
  46.3800       90
  46.3950      100
  46.4100       89
  46.4250       97
  46.4400       97
  46.4550       98
  46.4700       85
  46.4850       95
  46.5000      101
  46.5150       98
  46.5300      105
  46.5450      105
  46.5600      106
  46.5750       90
  46.5900      100
  46.6050       88
  46.6200       78
  46.6350       95
  46.6500      102
  46.6650       87
  46.6800      105
  46.6950      115
  46.7100      127
  46.7250      110
  46.7400       91
  46.7550      105
  46.7700      101
  46.7850       88
  46.8000       79
  46.8150       87
  46.8300       95
  46.8450       89
  46.8600       99
  46.8750       90
  46.8900      109
  46.9050      103
  46.9200       97
  46.9350       94
  46.9500       87
  46.9650       94
  46.9800      107
  46.9950      109
  47.0100      112
  47.0250      109
  47.0400      105
  47.0550      102
  47.0700       96
  47.0850      119
  47.1000      106
  47.1150       98
  47.1300      105
  47.1450       95
  47.1600      105
  47.1750      105
  47.1900      117
  47.2050      102
  47.2200       99
  47.2350       96
  47.2500      106
  47.2650      115
  47.2800      126
  47.2950      113
  47.3100      100
  47.3250       98
  47.3400      108
  47.3550      106
  47.3700      117
  47.3850      120
  47.4000      117
  47.4150      109
  47.4300      117
  47.4450       99
  47.4600      110
  47.4750      100
  47.4900      116
  47.5050      105
  47.5200       96
  47.5350       96
  47.5500      100
  47.5650       94
  47.5800       98
  47.5950      101
  47.6100       91
  47.6250      103
  47.6400      103
  47.6550      105
  47.6700      109
  47.6850      100
  47.7000      111
  47.7150       99
  47.7300      102
  47.7450      108
  47.7600      107
  47.7750      113
  47.7900       97
  47.8050      101
  47.8200       85
  47.8350      112
  47.8500      106
  47.8650       91
  47.8800       99
  47.8950      104
  47.9100       91
  47.9250      113
  47.9400      104
  47.9550      118
  47.9700      127
  47.9850      110
  48.0000       99
  48.0150      100
  48.0300      110
  48.0450      117
  48.0600       97
  48.0750       95
  48.0900      107
  48.1050       94
  48.1200       95
  48.1350       87
  48.1500       96
  48.1650      114
  48.1800      118
  48.1950      123
  48.2100      115
  48.2250      105
  48.2400       99
  48.2550       87
  48.2700      108
  48.2850      106
  48.3000      107
  48.3150      111
  48.3300      105
  48.3450       98
  48.3600      101
  48.3750      101
  48.3900      114
  48.4050       93
  48.4200       80
  48.4350       87
  48.4500       86
  48.4650       99
  48.4800      105
  48.4950      106
  48.5100       96
  48.5250       96
  48.5400      106
  48.5550      100
  48.5700      102
  48.5850       79
  48.6000       93
  48.6150       90
  48.6300       92
  48.6450       89
  48.6600       90
  48.6750       88
  48.6900       79
  48.7050       85
  48.7200       88
  48.7350       89
  48.7500       83
  48.7650       81
  48.7800       76
  48.7950       72
  48.8100       70
  48.8250       82
  48.8400       94
  48.8550       98
  48.8700       96
  48.8850       86
  48.9000      108
  48.9150      113
  48.9300       92
  48.9450       93
  48.9600       94
  48.9750       90
  48.9900      104
  49.0050       97
  49.0200       87
  49.0350       92
  49.0500      100
  49.0650      113
  49.0800      106
  49.0950      100
  49.1100      107
  49.1250      105
  49.1400       97
  49.1550      122
  49.1700      121
  49.1850      100
  49.2000       99
  49.2150       97
  49.2300      110
  49.2450      106
  49.2600       98
  49.2750      114
  49.2900      102
  49.3050      117
  49.3200      116
  49.3350      109
  49.3500       99
  49.3650      107
  49.3800       99
  49.3950      103
  49.4100       86
  49.4250       90
  49.4400       98
  49.4550      103
  49.4700      106
  49.4850       90
  49.5000      110
  49.5150      106
  49.5300      112
  49.5450      106
  49.5600       85
  49.5750       99
  49.5900      108
  49.6050      108
  49.6200      102
  49.6350      105
  49.6500       98
  49.6650      101
  49.6800       98
  49.6950       86
  49.7100      101
  49.7250      101
  49.7400      103
  49.7550       97
  49.7700       91
  49.7850       95
  49.8000       94
  49.8150       97
  49.8300      106
  49.8450       95
  49.8600      106
  49.8750       95
  49.8900       86
  49.9050      109
  49.9200      115
  49.9350      106
  49.9500      111
  49.9650      105
  49.9800      116
  49.9950      105
  50.0100      109
  50.0250       97
  50.0400      102
  50.0550      102
  50.0700       92
  50.0850      123
  50.1000      117
  50.1150      109
  50.1300      124
  50.1450      128
  50.1600      119
  50.1750      122
  50.1900      114
  50.2050      111
  50.2200      112
  50.2350      119
  50.2500      105
  50.2650      118
  50.2800      120
  50.2950      110
  50.3100      104
  50.3250      108
  50.3400      115
  50.3550      104
  50.3700      104
  50.3850       90
  50.4000       98
  50.4150      108
  50.4300      103
  50.4450      102
  50.4600       90
  50.4750       92
  50.4900      118
  50.5050       96
  50.5200       81
  50.5350       94
  50.5500       95
  50.5650      107
  50.5800       99
  50.5950       87
  50.6100      101
  50.6250      101
  50.6400       96
  50.6550      100
  50.6700      104
  50.6850       88
  50.7000       97
  50.7150       97
  50.7300       91
  50.7450       83
  50.7600       80
  50.7750       93
  50.7900       87
  50.8050       90
  50.8200       87
  50.8350       76
  50.8500       81
  50.8650       92
  50.8800       83
  50.8950      100
  50.9100      117
  50.9250      103
  50.9400       99
  50.9550       99
  50.9700       99
  50.9850       97
  51.0000       94
  51.0150       96
  51.0300      109
  51.0450      113
  51.0600       96
  51.0750      103
  51.0900      123
  51.1050      110
  51.1200      104
  51.1350      109
  51.1500       91
  51.1650      109
  51.1800      102
  51.1950      100
  51.2100       97
  51.2250      105
  51.2400       90
  51.2550      104
  51.2700      102
  51.2850      109
  51.3000      111
  51.3150      116
  51.3300      123
  51.3450      121
  51.3600      117
  51.3750      102
  51.3900      111
  51.4050      113
  51.4200      109
  51.4350       98
  51.4500      104
  51.4650       89
  51.4800       93
  51.4950       93
  51.5100       88
  51.5250      100
  51.5400       96
  51.5550      110
  51.5700      113
  51.5850       90
  51.6000      103
  51.6150       94
  51.6300      102
  51.6450      104
  51.6600       91
  51.6750      107
  51.6900      120
  51.7050      100
  51.7200      111
  51.7350      116
  51.7500      124
  51.7650      128
  51.7800      140
  51.7950      134
  51.8100      150
  51.8250      140
  51.8400      131
  51.8550      124
  51.8700      126
  51.8850      124
  51.9000      114
  51.9150      118
  51.9300      128
  51.9450      118
  51.9600      137
  51.9750      114
  51.9900      106
  52.0050      105
  52.0200      101
  52.0350      110
  52.0500      115
  52.0650      103
  52.0800      101
  52.0950      121
  52.1100      130
  52.1250      108
  52.1400      122
  52.1550      120
  52.1700      121
  52.1850      107
  52.2000       99
  52.2150      100
  52.2300      117
  52.2450      107
  52.2600      115
  52.2750       98
  52.2900       94
  52.3050      116
  52.3200      114
  52.3350      103
  52.3500      125
  52.3650      116
  52.3800      128
  52.3950      128
  52.4100      118
  52.4250      105
  52.4400      119
  52.4550      105
  52.4700      134
  52.4850      116
  52.5000      115
  52.5150      110
  52.5300      126
  52.5450      114
  52.5600      120
  52.5750       99
  52.5900      108
  52.6050      114
  52.6200       96
  52.6350      115
  52.6500      134
  52.6650      110
  52.6800      113
  52.6950      125
  52.7100      109
  52.7250      119
  52.7400      113
  52.7550      105
  52.7700      111
  52.7850      122
  52.8000      118
  52.8150      112
  52.8300      109
  52.8450       98
  52.8600       94
  52.8750      118
  52.8900      114
  52.9050      125
  52.9200      108
  52.9350      110
  52.9500      104
  52.9650      116
  52.9800      121
  52.9950      114
  53.0100      110
  53.0250      106
  53.0400      120
  53.0550      114
  53.0700      119
  53.0850      100
  53.1000      103
  53.1150       97
  53.1300      111
  53.1450      106
  53.1600      104
  53.1750      107
  53.1900       93
  53.2050       96
  53.2200      105
  53.2350       96
  53.2500      112
  53.2650       89
  53.2800       91
  53.2950       93
  53.3100       96
  53.3250       97
  53.3400      105
  53.3550      107
  53.3700       95
  53.3850      117
  53.4000      114
  53.4150       97
  53.4300      102
  53.4450      107
  53.4600       89
  53.4750      103
  53.4900      109
  53.5050      119
  53.5200      102
  53.5350      100
  53.5500      124
  53.5650      106
  53.5800      124
  53.5950       97
  53.6100      109
  53.6250      102
  53.6400      115
  53.6550      102
  53.6700      107
  53.6850      107
  53.7000      122
  53.7150      106
  53.7300      109
  53.7450      119
  53.7600      110
  53.7750      104
  53.7900       93
  53.8050       98
  53.8200      110
  53.8350      110
  53.8500      117
  53.8650      111
  53.8800      105
  53.8950      114
  53.9100       97
  53.9250      103
  53.9400      116
  53.9550      113
  53.9700      122
  53.9850      123
  54.0000      114
  54.0150      119
  54.0300      127
  54.0450      121
  54.0600      115
  54.0750      124
  54.0900      113
  54.1050      110
  54.1200      102
  54.1350      114
  54.1500      114
  54.1650      118
  54.1800       99
  54.1950       95
  54.2100       92
  54.2250      103
  54.2400       95
  54.2550      109
  54.2700      104
  54.2850      106
  54.3000      110
  54.3150       81
  54.3300       88
  54.3450       93
  54.3600       96
  54.3750       88
  54.3900      101
  54.4050       92
  54.4200       84
  54.4350      102
  54.4500       91
  54.4650      104
  54.4800       89
  54.4950      109
  54.5100      109
  54.5250      103
  54.5400      102
  54.5550       95
  54.5700       93
  54.5850       87
  54.6000       88
  54.6150       83
  54.6300       80
  54.6450       89
  54.6600       88
  54.6750      105
  54.6900      105
  54.7050      108
  54.7200      113
  54.7350      119
  54.7500      100
  54.7650      114
  54.7800      103
  54.7950       98
  54.8100       99
  54.8250      102
  54.8400       89
  54.8550       92
  54.8700       87
  54.8850       81
  54.9000       78
  54.9150       90
  54.9300       89
  54.9450       89
  54.9600       98
  54.9750       94
  54.9900       90
  55.0050      100
  55.0200       97
  55.0350       88
  55.0500       87
  55.0650       89
  55.0800       91
  55.0950       93
  55.1100      100
  55.1250      104
  55.1400       97
  55.1550       98
  55.1700       94
  55.1850       82
  55.2000      103
  55.2150      100
  55.2300       90
  55.2450       88
  55.2600       78
  55.2750       84
  55.2900      100
  55.3050       90
  55.3200       92
  55.3350       79
  55.3500       96
  55.3650       78
  55.3800       96
  55.3950       91
  55.4100       83
  55.4250      101
  55.4400      111
  55.4550       97
  55.4700       88
  55.4850       86
  55.5000      107
  55.5150       90
  55.5300       92
  55.5450       86
  55.5600       90
  55.5750       95
  55.5900      106
  55.6050       96
  55.6200       95
  55.6350       93
  55.6500      100
  55.6650       99
  55.6800      102
  55.6950      109
  55.7100      104
  55.7250       92
  55.7400       90
  55.7550      109
  55.7700      104
  55.7850       94
  55.8000      105
  55.8150      108
  55.8300      119
  55.8450      112
  55.8600      111
  55.8750      115
  55.8900      110
  55.9050      110
  55.9200      111
  55.9350      108
  55.9500      119
  55.9650      134
  55.9800      122
  55.9950      123
  56.0100      116
  56.0250      107
  56.0400       98
  56.0550       94
  56.0700       98
  56.0850       99
  56.1000       94
  56.1150      100
  56.1300      106
  56.1450      109
  56.1600      116
  56.1750      109
  56.1900      104
  56.2050      108
  56.2200       97
  56.2350       96
  56.2500       96
  56.2650       83
  56.2800       95
  56.2950       92
  56.3100       89
  56.3250       98
  56.3400       87
  56.3550       88
  56.3700      103
  56.3850       87
  56.4000       88
  56.4150       97
  56.4300      109
  56.4450      108
  56.4600       92
  56.4750       99
  56.4900       86
  56.5050       93
  56.5200      100
  56.5350       91
  56.5500      104
  56.5650      112
  56.5800       97
  56.5950       82
  56.6100       87
  56.6250       79
  56.6400       96
  56.6550       85
  56.6700       94
  56.6850       99
  56.7000      107
  56.7150       91
  56.7300      106
  56.7450       96
  56.7600       87
  56.7750       95
  56.7900      110
  56.8050      115
  56.8200      107
  56.8350      106
  56.8500       89
  56.8650      101
  56.8800      104
  56.8950       92
  56.9100      104
  56.9250      103
  56.9400      102
  56.9550       93
  56.9700       91
  56.9850       81
  57.0000       86
  57.0150       78
  57.0300       88
  57.0450      100
  57.0600      110
  57.0750      100
  57.0900       89
  57.1050       98
  57.1200      102
  57.1350      112
  57.1500      113
  57.1650      114
  57.1800       99
  57.1950       89
  57.2100       91
  57.2250       91
  57.2400      106
  57.2550      110
  57.2700      113
  57.2850       89
  57.3000      104
  57.3150       98
  57.3300       97
  57.3450      102
  57.3600       99
  57.3750      117
  57.3900      112
  57.4050      100
  57.4200      109
  57.4350      112
  57.4500      109
  57.4650      109
  57.4800      107
  57.4950      100
  57.5100       96
  57.5250      107
  57.5400       98
  57.5550       98
  57.5700       94
  57.5850       97
  57.6000       79
  57.6150      106
  57.6300      120
  57.6450      128
  57.6600      104
  57.6750       97
  57.6900      105
  57.7050      103
  57.7200       94
  57.7350      104
  57.7500      101
  57.7650      104
  57.7800      101
  57.7950       98
  57.8100       93
  57.8250       90
  57.8400       87
  57.8550      105
  57.8700       90
  57.8850       79
  57.9000       97
  57.9150      113
  57.9300       88
  57.9450       94
  57.9600       86
  57.9750       86
  57.9900       95
  58.0050      100
  58.0200      100
  58.0350       98
  58.0500       90
  58.0650       99
  58.0800      100
  58.0950       89
  58.1100       94
  58.1250       89
  58.1400       93
  58.1550       93
  58.1700       98
  58.1850       94
  58.2000       92
  58.2150       95
  58.2300       99
  58.2450       96
  58.2600       91
  58.2750       94
  58.2900       98
  58.3050       89
  58.3200       95
  58.3350       79
  58.3500      100
  58.3650       89
  58.3800      100
  58.3950       93
  58.4100       78
  58.4250       90
  58.4400       87
  58.4550       89
  58.4700       83
  58.4850       98
  58.5000      103
  58.5150       85
  58.5300       95
  58.5450       91
  58.5600       96
  58.5750       92
  58.5900       75
  58.6050       87
  58.6200      107
  58.6350       96
  58.6500       96
  58.6650       95
  58.6800       94
  58.6950       96
  58.7100       91
  58.7250       95
  58.7400       89
  58.7550      103
  58.7700       93
  58.7850       82
  58.8000       91
  58.8150       88
  58.8300       87
  58.8450       88
  58.8600       78
  58.8750       77
  58.8900       85
  58.9050       96
  58.9200       81
  58.9350       84
  58.9500       89
  58.9650       97
  58.9800       91
  58.9950       94
  59.0100      102
  59.0250       98
  59.0400       91
  59.0550       91
  59.0700       90
  59.0850      107
  59.1000      104
  59.1150       98
  59.1300       85
  59.1450       91
  59.1600       94
  59.1750       91
  59.1900       87
  59.2050       85
  59.2200      103
  59.2350       98
  59.2500       98
  59.2650      103
  59.2800      101
  59.2950      103
  59.3100       92
  59.3250       81
  59.3400       82
  59.3550       84
  59.3700       96
  59.3850       95
  59.4000      114
  59.4150       96
  59.4300       98
  59.4450       97
  59.4600       96
  59.4750       97
  59.4900       95
  59.5050       97
  59.5200       89
  59.5350       92
  59.5500       82
  59.5650       96
  59.5800       93
  59.5950       87
  59.6100       91
  59.6250       89
  59.6400      104
  59.6550       93
  59.6700      101
  59.6850       96
  59.7000      106
  59.7150       75
  59.7300       73
  59.7450       76
  59.7600       76
  59.7750       72
  59.7900       84
  59.8050       95
  59.8200       81
  59.8350       87
  59.8500       81
  59.8650       74
  59.8800       89
  59.8950       81
  59.9100       76
  59.9250       94
  59.9400       69
  59.9550       74
  59.9700       75
  59.9850       80
  60.0000       75
  60.0150       82
  60.0300       75
  60.0450       77
  60.0600       69
  60.0750      100
  60.0900       85
  60.1050       78
  60.1200       68
  60.1350       75
  60.1500       81
  60.1650       74
  60.1800       93
  60.1950       94
  60.2100       91
  60.2250       76
  60.2400       69
  60.2550       87
  60.2700       81
  60.2850       91
  60.3000       90
  60.3150      100
  60.3300       91
  60.3450       98
  60.3600      116
  60.3750       87
  60.3900       89
  60.4050       95
  60.4200       87
  60.4350       92
  60.4500       97
  60.4650       78
  60.4800       76
  60.4950       89
  60.5100       96
  60.5250       97
  60.5400       91
  60.5550       81
  60.5700      100
  60.5850       98
  60.6000       94
  60.6150       73
  60.6300       67
  60.6450       83
  60.6600       85
  60.6750       91
  60.6900       86
  60.7050       86
  60.7200       83
  60.7350       87
  60.7500       84
  60.7650       88
