   4.5000      169
   4.5150      180
   4.5300      165
   4.5450      162
   4.5600      180
   4.5750      177
   4.5900      161
   4.6050      177
   4.6200      185
   4.6350      184
   4.6500      193
   4.6650      177
   4.6800      189
   4.6950      187
   4.7100      178
   4.7250      178
   4.7400      161
   4.7550      155
   4.7700      154
   4.7850      163
   4.8000      159
   4.8150      177
   4.8300      189
   4.8450      179
   4.8600      151
   4.8750      172
   4.8900      175
   4.9050      165
   4.9200      158
   4.9350      178
   4.9500      186
   4.9650      181
   4.9800      171
   4.9950      172
   5.0100      180
   5.0250      178
   5.0400      183
   5.0550      185
   5.0700      171
   5.0850      173
   5.1000      191
   5.1150      172
   5.1300      187
   5.1450      186
   5.1600      203
   5.1750      208
   5.1900      194
   5.2050      193
   5.2200      202
   5.2350      204
   5.2500      167
   5.2650      161
   5.2800      175
   5.2950      173
   5.3100      186
   5.3250      173
   5.3400      167
   5.3550      180
   5.3700      167
   5.3850      188
   5.4000      187
   5.4150      179
   5.4300      157
   5.4450      180
   5.4600      179
   5.4750      158
   5.4900      156
   5.5050      159
   5.5200      166
   5.5350      188
   5.5500      184
   5.5650      178
   5.5800      182
   5.5950      191
   5.6100      167
   5.6250      177
   5.6400      193
   5.6550      186
   5.6700      170
   5.6850      162
   5.7000      172
   5.7150      173
   5.7300      183
   5.7450      166
   5.7600      173
   5.7750      160
   5.7900      171
   5.8050      167
   5.8200      171
   5.8350      169
   5.8500      165
   5.8650      171
   5.8800      171
   5.8950      182
   5.9100      165
   5.9250      168
   5.9400      161
   5.9550      148
   5.9700      166
   5.9850      172
   6.0000      162
   6.0150      166
   6.0300      150
   6.0450      167
   6.0600      176
   6.0750      160
   6.0900      173
   6.1050      168
   6.1200      165
   6.1350      174
   6.1500      176
   6.1650      176
   6.1800      164
   6.1950      176
   6.2100      187
   6.2250      191
   6.2400      183
   6.2550      169
   6.2700      183
   6.2850      168
   6.3000      178
   6.3150      178
   6.3300      161
   6.3450      157
   6.3600      156
   6.3750      173
   6.3900      157
   6.4050      183
   6.4200      179
   6.4350      184
   6.4500      165
   6.4650      151
   6.4800      173
   6.4950      196
   6.5100      194
   6.5250      187
   6.5400      183
   6.5550      185
   6.5700      189
   6.5850      197
   6.6000      190
   6.6150      188
   6.6300      187
   6.6450      196
   6.6600      205
   6.6750      189
   6.6900      197
   6.7050      198
   6.7200      202
   6.7350      235
   6.7500      229
   6.7650      234
   6.7800      228
   6.7950      248
   6.8100      300
   6.8250      312
   6.8400      321
   6.8550      340
   6.8700      363
   6.8850      405
   6.9000      458
   6.9150      521
   6.9300      537
   6.9450      590
   6.9600      657
   6.9750      695
   6.9900      736
   7.0050      874
   7.0200     1014
   7.0350     1066
   7.0500     1174
   7.0650     1327
   7.0800     1488
   7.0950     1763
   7.1100     1969
   7.1250     2293
   7.1400     2614
   7.1550     2966
   7.1700     3569
   7.1850     4262
   7.2000     5086
   7.2150     6336
   7.2300     7232
   7.2450     6365
   7.2600     4340
   7.2750     2336
   7.2900     1120
   7.3050      649
   7.3200      480
   7.3350      367
   7.3500      338
   7.3650      302
   7.3800      319
   7.3950      286
   7.4100      266
   7.4250      320
   7.4400      313
   7.4550      300
   7.4700      346
   7.4850      393
   7.5000      385
   7.5150      381
   7.5300      438
   7.5450      499
   7.5600      577
   7.5750      612
   7.5900      667
   7.6050      704
   7.6200      796
   7.6350      938
   7.6500      996
   7.6650     1110
   7.6800     1265
   7.6950     1414
   7.7100     1623
   7.7250     1798
   7.7400     2265
   7.7550     2709
   7.7700     3461
   7.7850     4244
   7.8000     4695
   7.8150     4072
   7.8300     2776
   7.8450     1473
   7.8600      742
   7.8750      490
   7.8900      389
   7.9050      329
   7.9200      324
   7.9350      304
   7.9500      284
   7.9650      292
   7.9800      260
   7.9950      241
   8.0100      241
   8.0250      216
   8.0400      187
   8.0550      162
   8.0700      198
   8.0850      184
   8.1000      178
   8.1150      183
   8.1300      175
   8.1450      150
   8.1600      186
   8.1750      178
   8.1900      179
   8.2050      166
   8.2200      162
   8.2350      167
   8.2500      158
   8.2650      173
   8.2800      151
   8.2950      169
   8.3100      165
   8.3250      165
   8.3400      162
   8.3550      152
   8.3700      165
   8.3850      168
   8.4000      164
   8.4150      159
   8.4300      147
   8.4450      171
   8.4600      164
   8.4750      150
   8.4900      159
   8.5050      161
   8.5200      157
   8.5350      164
   8.5500      139
   8.5650      153
   8.5800      163
   8.5950      176
   8.6100      182
   8.6250      176
   8.6400      170
   8.6550      186
   8.6700      160
   8.6850      161
   8.7000      170
   8.7150      156
   8.7300      154
   8.7450      164
   8.7600      161
   8.7750      159
   8.7900      160
   8.8050      153
   8.8200      170
   8.8350      155
   8.8500      163
   8.8650      178
   8.8800      172
   8.8950      156
   8.9100      157
   8.9250      160
   8.9400      164
   8.9550      151
   8.9700      150
   8.9850      150
   9.0000      156
   9.0150      167
   9.0300      174
   9.0450      173
   9.0600      185
   9.0750      170
   9.0900      164
   9.1050      169
   9.1200      152
   9.1350      165
   9.1500      173
   9.1650      183
   9.1800      184
   9.1950      176
   9.2100      165
   9.2250      187
   9.2400      165
   9.2550      152
   9.2700      164
   9.2850      152
   9.3000      149
   9.3150      171
   9.3300      160
   9.3450      148
   9.3600      150
   9.3750      181
   9.3900      166
   9.4050      136
   9.4200      149
   9.4350      158
   9.4500      147
   9.4650      162
   9.4800      153
   9.4950      165
   9.5100      167
   9.5250      174
   9.5400      155
   9.5550      166
   9.5700      166
   9.5850      173
   9.6000      178
   9.6150      162
   9.6300      170
   9.6450      164
   9.6600      162
   9.6750      175
   9.6900      176
   9.7050      160
   9.7200      169
   9.7350      165
   9.7500      174
   9.7650      188
   9.7800      209
   9.7950      181
   9.8100      191
   9.8250      169
   9.8400      165
   9.8550      176
   9.8700      187
   9.8850      204
   9.9000      228
   9.9150      249
   9.9300      205
   9.9450      219
   9.9600      249
   9.9750      290
   9.9900      268
  10.0050      299
  10.0200      311
  10.0350      361
  10.0500      389
  10.0650      429
  10.0800      481
  10.0950      579
  10.1100      611
  10.1250      565
  10.1400      492
  10.1550      331
  10.1700      276
  10.1850      262
  10.2000      231
  10.2150      230
  10.2300      231
  10.2450      238
  10.2600      239
  10.2750      244
  10.2900      238
  10.3050      236
  10.3200      245
  10.3350      275
  10.3500      270
  10.3650      308
  10.3800      306
  10.3950      302
  10.4100      253
  10.4250      237
  10.4400      203
  10.4550      195
  10.4700      198
  10.4850      207
  10.5000      189
  10.5150      185
  10.5300      196
  10.5450      191
  10.5600      205
  10.5750      217
  10.5900      216
  10.6050      233
  10.6200      253
  10.6350      265
  10.6500      277
  10.6650      298
  10.6800      317
  10.6950      352
  10.7100      356
  10.7250      349
  10.7400      314
  10.7550      316
  10.7700      335
  10.7850      378
  10.8000      393
  10.8150      454
  10.8300      515
  10.8450      514
  10.8600      476
  10.8750      419
  10.8900      322
  10.9050      279
  10.9200      212
  10.9350      204
  10.9500      239
  10.9650      234
  10.9800      248
  10.9950      209
  11.0100      190
  11.0250      213
  11.0400      190
  11.0550      201
  11.0700      196
  11.0850      187
  11.1000      182
  11.1150      171
  11.1300      174
  11.1450      173
  11.1600      177
  11.1750      177
  11.1900      171
  11.2050      172
  11.2200      170
  11.2350      204
  11.2500      166
  11.2650      187
  11.2800      190
  11.2950      191
  11.3100      179
  11.3250      179
  11.3400      190
  11.3550      175
  11.3700      170
  11.3850      168
  11.4000      167
  11.4150      142
  11.4300      157
  11.4450      179
  11.4600      159
  11.4750      163
  11.4900      161
  11.5050      158
  11.5200      154
  11.5350      160
  11.5500      158
  11.5650      175
  11.5800      181
  11.5950      182
  11.6100      169
  11.6250      152
  11.6400      162
  11.6550      172
  11.6700      144
  11.6850      141
  11.7000      148
  11.7150      150
  11.7300      171
  11.7450      162
  11.7600      177
  11.7750      174
  11.7900      184
  11.8050      159
  11.8200      166
  11.8350      163
  11.8500      155
  11.8650      152
  11.8800      177
  11.8950      182
  11.9100      161
  11.9250      141
  11.9400      174
  11.9550      176
  11.9700      176
  11.9850      167
  12.0000      165
  12.0150      173
  12.0300      180
  12.0450      160
  12.0600      173
  12.0750      189
  12.0900      189
  12.1050      193
  12.1200      193
  12.1350      201
  12.1500      223
  12.1650      255
  12.1800      246
  12.1950      257
  12.2100      271
  12.2250      276
  12.2400      248
  12.2550      223
  12.2700      178
  12.2850      163
  12.3000      185
  12.3150      157
  12.3300      167
  12.3450      163
  12.3600      155
  12.3750      166
  12.3900      160
  12.4050      175
  12.4200      162
  12.4350      166
  12.4500      176
  12.4650      173
  12.4800      184
  12.4950      188
  12.5100      183
  12.5250      178
  12.5400      171
  12.5550      172
  12.5700      187
  12.5850      191
  12.6000      215
  12.6150      224
  12.6300      222
  12.6450      237
  12.6600      317
  12.6750      321
  12.6900      355
  12.7050      336
  12.7200      321
  12.7350      317
  12.7500      347
  12.7650      362
  12.7800      431
  12.7950      478
  12.8100      573
  12.8250      650
  12.8400      785
  12.8550      842
  12.8700      830
  12.8850      675
  12.9000      468
  12.9150      357
  12.9300      295
  12.9450      236
  12.9600      244
  12.9750      241
  12.9900      211
  13.0050      191
  13.0200      192
  13.0350      174
  13.0500      194
  13.0650      211
  13.0800      197
  13.0950      180
  13.1100      179
  13.1250      182
  13.1400      186
  13.1550      227
  13.1700      220
  13.1850      236
  13.2000      232
  13.2150      238
  13.2300      248
  13.2450      252
  13.2600      255
  13.2750      238
  13.2900      217
  13.3050      226
  13.3200      198
  13.3350      229
  13.3500      278
  13.3650      282
  13.3800      328
  13.3950      356
  13.4100      418
  13.4250      483
  13.4400      517
  13.4550      509
  13.4700      442
  13.4850      367
  13.5000      337
  13.5150      302
  13.5300      299
  13.5450      300
  13.5600      292
  13.5750      338
  13.5900      374
  13.6050      438
  13.6200      483
  13.6350      583
  13.6500      730
  13.6650      866
  13.6800      979
  13.6950      886
  13.7100      726
  13.7250      531
  13.7400      317
  13.7550      243
  13.7700      203
  13.7850      238
  13.8000      211
  13.8150      195
  13.8300      214
  13.8450      213
  13.8600      191
  13.8750      168
  13.8900      171
  13.9050      167
  13.9200      185
  13.9350      170
  13.9500      183
  13.9650      161
  13.9800      146
  13.9950      144
  14.0100      173
  14.0250      159
  14.0400      169
  14.0550      174
  14.0700      169
  14.0850      165
  14.1000      157
  14.1150      185
  14.1300      188
  14.1450      200
  14.1600      221
  14.1750      232
  14.1900      210
  14.2050      191
  14.2200      185
  14.2350      210
  14.2500      204
  14.2650      202
  14.2800      181
  14.2950      190
  14.3100      197
  14.3250      202
  14.3400      214
  14.3550      231
  14.3700      245
  14.3850      242
  14.4000      232
  14.4150      220
  14.4300      238
  14.4450      233
  14.4600      225
  14.4750      232
  14.4900      274
  14.5050      253
  14.5200      243
  14.5350      214
  14.5500      188
  14.5650      167
  14.5800      168
  14.5950      151
  14.6100      154
  14.6250      151
  14.6400      136
  14.6550      148
  14.6700      146
  14.6850      150
  14.7000      147
  14.7150      152
  14.7300      163
  14.7450      150
  14.7600      178
  14.7750      153
  14.7900      167
  14.8050      153
  14.8200      162
  14.8350      187
  14.8500      200
  14.8650      184
  14.8800      217
  14.8950      267
  14.9100      266
  14.9250      315
  14.9400      343
  14.9550      420
  14.9700      493
  14.9850      571
  15.0000      582
  15.0150      679
  15.0300      769
  15.0450      927
  15.0600     1055
  15.0750     1080
  15.0900      988
  15.1050      760
  15.1200      559
  15.1350      409
  15.1500      295
  15.1650      267
  15.1800      243
  15.1950      233
  15.2100      174
  15.2250      179
  15.2400      214
  15.2550      189
  15.2700      211
  15.2850      205
  15.3000      214
  15.3150      220
  15.3300      245
  15.3450      275
  15.3600      303
  15.3750      344
  15.3900      367
  15.4050      405
  15.4200      471
  15.4350      425
  15.4500      328
  15.4650      264
  15.4800      218
  15.4950      197
  15.5100      188
  15.5250      195
  15.5400      191
  15.5550      205
  15.5700      213
  15.5850      232
  15.6000      224
  15.6150      236
  15.6300      241
  15.6450      224
  15.6600      208
  15.6750      228
  15.6900      242
  15.7050      262
  15.7200      292
  15.7350      320
  15.7500      399
  15.7650      467
  15.7800      496
  15.7950      492
  15.8100      523
  15.8250      480
  15.8400      494
  15.8550      497
  15.8700      474
  15.8850      430
  15.9000      400
  15.9150      406
  15.9300      462
  15.9450      548
  15.9600      551
  15.9750      614
  15.9900      587
  16.0050      486
  16.0200      415
  16.0350      332
  16.0500      267
  16.0650      208
  16.0800      177
  16.0950      159
  16.1100      185
  16.1250      183
  16.1400      197
  16.1550      173
  16.1700      193
  16.1850      188
  16.2000      184
  16.2150      185
  16.2300      194
  16.2450      219
  16.2600      205
  16.2750      214
  16.2900      217
  16.3050      246
  16.3200      278
  16.3350      348
  16.3500      396
  16.3650      464
  16.3800      570
  16.3950      738
  16.4100      856
  16.4250     1045
  16.4400     1363
  16.4550     1679
  16.4700     1899
  16.4850     1702
  16.5000     1402
  16.5150     1165
  16.5300      926
  16.5450      847
  16.5600      861
  16.5750      938
  16.5900     1109
  16.6050     1194
  16.6200     1132
  16.6350      946
  16.6500      708
  16.6650      547
  16.6800      417
  16.6950      341
  16.7100      281
  16.7250      236
  16.7400      196
  16.7550      217
  16.7700      231
  16.7850      208
  16.8000      185
  16.8150      188
  16.8300      205
  16.8450      225
  16.8600      224
  16.8750      234
  16.8900      207
  16.9050      200
  16.9200      219
  16.9350      222
  16.9500      244
  16.9650      256
  16.9800      264
  16.9950      259
  17.0100      282
  17.0250      345
  17.0400      370
  17.0550      468
  17.0700      544
  17.0850      603
  17.1000      695
  17.1150      627
  17.1300      547
  17.1450      433
  17.1600      325
  17.1750      266
  17.1900      222
  17.2050      207
  17.2200      186
  17.2350      180
  17.2500      166
  17.2650      165
  17.2800      153
  17.2950      147
  17.3100      134
  17.3250      160
  17.3400      158
  17.3550      154
  17.3700      150
  17.3850      160
  17.4000      167
  17.4150      155
  17.4300      168
  17.4450      136
  17.4600      133
  17.4750      130
  17.4900      134
  17.5050      130
  17.5200      128
  17.5350      117
  17.5500      134
  17.5650      131
  17.5800      130
  17.5950      133
  17.6100      126
  17.6250      142
  17.6400      146
  17.6550      135
  17.6700      158
  17.6850      161
  17.7000      152
  17.7150      154
  17.7300      177
  17.7450      199
  17.7600      190
  17.7750      182
  17.7900      178
  17.8050      160
  17.8200      171
  17.8350      155
  17.8500      139
  17.8650      157
  17.8800      148
  17.8950      147
  17.9100      141
  17.9250      156
  17.9400      164
  17.9550      146
  17.9700      149
  17.9850      150
  18.0000      140
  18.0150      176
  18.0300      161
  18.0450      165
  18.0600      183
  18.0750      212
  18.0900      242
  18.1050      272
  18.1200      313
  18.1350      373
  18.1500      405
  18.1650      479
  18.1800      558
  18.1950      653
  18.2100      798
  18.2250      973
  18.2400     1148
  18.2550     1157
  18.2700     1107
  18.2850     1089
  18.3000     1065
  18.3150     1052
  18.3300     1158
  18.3450     1278
  18.3600     1569
  18.3750     1687
  18.3900     1722
  18.4050     1452
  18.4200     1101
  18.4350      846
  18.4500      622
  18.4650      476
  18.4800      384
  18.4950      316
  18.5100      291
  18.5250      297
  18.5400      306
  18.5550      267
  18.5700      253
  18.5850      249
  18.6000      234
  18.6150      211
  18.6300      239
  18.6450      231
  18.6600      263
  18.6750      280
  18.6900      300
  18.7050      316
  18.7200      373
  18.7350      463
  18.7500      597
  18.7650      745
  18.7800      892
  18.7950      909
  18.8100      900
  18.8250      806
  18.8400      625
  18.8550      514
  18.8700      435
  18.8850      429
  18.9000      470
  18.9150      572
  18.9300      695
  18.9450      780
  18.9600      887
  18.9750     1040
  18.9900     1047
  19.0050      922
  19.0200      766
  19.0350      576
  19.0500      417
  19.0650      307
  19.0800      275
  19.0950      238
  19.1100      240
  19.1250      248
  19.1400      232
  19.1550      217
  19.1700      192
  19.1850      197
  19.2000      191
  19.2150      179
  19.2300      181
  19.2450      156
  19.2600      175
  19.2750      157
  19.2900      165
  19.3050      187
  19.3200      171
  19.3350      182
  19.3500      173
  19.3650      166
  19.3800      148
  19.3950      186
  19.4100      180
  19.4250      167
  19.4400      161
  19.4550      146
  19.4700      152
  19.4850      171
  19.5000      156
  19.5150      180
  19.5300      190
  19.5450      171
  19.5600      164
  19.5750      166
  19.5900      172
  19.6050      170
  19.6200      181
  19.6350      180
  19.6500      171
  19.6650      181
  19.6800      187
  19.6950      202
  19.7100      222
  19.7250      228
  19.7400      278
  19.7550      299
  19.7700      330
  19.7850      373
  19.8000      472
  19.8150      596
  19.8300      740
  19.8450      942
  19.8600     1169
  19.8750     1381
  19.8900     1597
  19.9050     1719
  19.9200     1626
  19.9350     1437
  19.9500     1171
  19.9650      949
  19.9800      857
  19.9950      810
  20.0100      834
  20.0250      873
  20.0400      806
  20.0550      663
  20.0700      591
  20.0850      550
  20.1000      501
  20.1150      470
  20.1300      449
  20.1450      402
  20.1600      363
  20.1750      342
  20.1900      312
  20.2050      304
  20.2200      282
  20.2350      288
  20.2500      312
  20.2650      340
  20.2800      391
  20.2950      443
  20.3100      519
  20.3250      523
  20.3400      530
  20.3550      538
  20.3700      482
  20.3850      411
  20.4000      383
  20.4150      356
  20.4300      316
  20.4450      320
  20.4600      315
  20.4750      338
  20.4900      380
  20.5050      439
  20.5200      462
  20.5350      603
  20.5500      695
  20.5650      759
  20.5800      691
  20.5950      584
  20.6100      481
  20.6250      383
  20.6400      315
  20.6550      306
  20.6700      270
  20.6850      267
  20.7000      258
  20.7150      274
  20.7300      292
  20.7450      314
  20.7600      341
  20.7750      372
  20.7900      463
  20.8050      530
  20.8200      598
  20.8350      673
  20.8500      741
  20.8650      718
  20.8800      676
  20.8950      604
  20.9100      489
  20.9250      420
  20.9400      341
  20.9550      284
  20.9700      262
  20.9850      277
  21.0000      286
  21.0150      303
  21.0300      276
  21.0450      279
  21.0600      274
  21.0750      289
  21.0900      291
  21.1050      334
  21.1200      378
  21.1350      461
  21.1500      533
  21.1650      601
  21.1800      702
  21.1950      843
  21.2100      811
  21.2250      787
  21.2400      709
  21.2550      613
  21.2700      550
  21.2850      452
  21.3000      443
  21.3150      483
  21.3300      478
  21.3450      445
  21.3600      401
  21.3750      379
  21.3900      329
  21.4050      323
  21.4200      367
  21.4350      391
  21.4500      505
  21.4650      571
  21.4800      696
  21.4950      765
  21.5100      816
  21.5250      836
  21.5400      793
  21.5550      636
  21.5700      518
  21.5850      400
  21.6000      343
  21.6150      294
  21.6300      281
  21.6450      253
  21.6600      265
  21.6750      267
  21.6900      249
  21.7050      234
  21.7200      223
  21.7350      264
  21.7500      278
  21.7650      319
  21.7800      355
  21.7950      401
  21.8100      488
  21.8250      483
  21.8400      505
  21.8550      480
  21.8700      414
  21.8850      352
  21.9000      312
  21.9150      223
  21.9300      213
  21.9450      201
  21.9600      199
  21.9750      194
  21.9900      213
  22.0050      211
  22.0200      221
  22.0350      245
  22.0500      233
  22.0650      237
  22.0800      247
  22.0950      219
  22.1100      197
  22.1250      172
  22.1400      153
  22.1550      146
  22.1700      146
  22.1850      162
  22.2000      144
  22.2150      144
  22.2300      138
  22.2450      140
  22.2600      117
  22.2750      123
  22.2900      120
  22.3050      128
  22.3200      124
  22.3350      143
  22.3500      118
  22.3650      132
  22.3800      133
  22.3950      122
  22.4100      109
  22.4250      104
  22.4400      108
  22.4550      110
  22.4700      111
  22.4850      103
  22.5000      109
  22.5150      104
  22.5300      121
  22.5450      122
  22.5600      116
  22.5750      125
  22.5900      135
  22.6050      114
  22.6200      120
  22.6350      120
  22.6500      120
  22.6650      106
  22.6800      129
  22.6950      117
  22.7100      107
  22.7250      119
  22.7400      121
  22.7550      125
  22.7700      146
  22.7850      128
  22.8000      125
  22.8150      116
  22.8300      116
  22.8450      146
  22.8600      148
  22.8750      143
  22.8900      149
  22.9050      146
  22.9200      143
  22.9350      133
  22.9500      132
  22.9650      141
  22.9800      130
  22.9950      127
  23.0100      137
  23.0250      132
  23.0400      124
  23.0550      151
  23.0700      138
  23.0850      140
  23.1000      141
  23.1150      139
  23.1300      135
  23.1450      151
  23.1600      142
  23.1750      123
  23.1900      133
  23.2050      143
  23.2200      129
  23.2350      138
  23.2500      149
  23.2650      161
  23.2800      154
  23.2950      166
  23.3100      193
  23.3250      199
  23.3400      218
  23.3550      241
  23.3700      209
  23.3850      197
  23.4000      181
  23.4150      161
  23.4300      152
  23.4450      130
  23.4600      141
  23.4750      134
  23.4900      132
  23.5050      147
  23.5200      128
  23.5350      121
  23.5500      127
  23.5650      129
  23.5800      120
  23.5950      140
  23.6100      139
  23.6250      133
  23.6400      125
  23.6550      135
  23.6700      138
  23.6850      136
  23.7000      154
  23.7150      152
  23.7300      143
  23.7450      171
  23.7600      162
  23.7750      164
  23.7900      184
  23.8050      173
  23.8200      191
  23.8350      179
  23.8500      175
  23.8650      185
  23.8800      183
  23.8950      202
  23.9100      226
  23.9250      271
  23.9400      316
  23.9550      390
  23.9700      430
  23.9850      479
  24.0000      489
  24.0150      436
  24.0300      346
  24.0450      331
  24.0600      304
  24.0750      303
  24.0900      279
  24.1050      286
  24.1200      329
  24.1350      315
  24.1500      313
  24.1650      301
  24.1800      255
  24.1950      226
  24.2100      225
  24.2250      175
  24.2400      180
  24.2550      169
  24.2700      163
  24.2850      179
  24.3000      175
  24.3150      166
  24.3300      188
  24.3450      181
  24.3600      201
  24.3750      195
  24.3900      234
  24.4050      228
  24.4200      250
  24.4350      276
  24.4500      296
  24.4650      361
  24.4800      365
  24.4950      457
  24.5100      480
  24.5250      576
  24.5400      662
  24.5550      815
  24.5700      960
  24.5850     1083
  24.6000     1065
  24.6150      951
  24.6300      761
  24.6450      562
  24.6600      408
  24.6750      325
  24.6900      300
  24.7050      247
  24.7200      259
  24.7350      269
  24.7500      295
  24.7650      314
  24.7800      347
  24.7950      387
  24.8100      376
  24.8250      393
  24.8400      398
  24.8550      346
  24.8700      321
  24.8850      268
  24.9000      266
  24.9150      249
  24.9300      314
  24.9450      354
  24.9600      382
  24.9750      402
  24.9900      411
  25.0050      388
  25.0200      337
  25.0350      285
  25.0500      248
  25.0650      219
  25.0800      210
  25.0950      185
  25.1100      173
  25.1250      169
  25.1400      161
  25.1550      164
  25.1700      186
  25.1850      198
  25.2000      185
  25.2150      181
  25.2300      208
  25.2450      200
  25.2600      191
  25.2750      217
  25.2900      201
  25.3050      200
  25.3200      196
  25.3350      170
  25.3500      199
  25.3650      187
  25.3800      178
  25.3950      189
  25.4100      185
  25.4250      203
  25.4400      222
  25.4550      248
  25.4700      256
  25.4850      270
  25.5000      307
  25.5150      337
  25.5300      315
  25.5450      275
  25.5600      244
  25.5750      226
  25.5900      215
  25.6050      196
  25.6200      202
  25.6350      190
  25.6500      195
  25.6650      181
  25.6800      181
  25.6950      235
  25.7100      244
  25.7250      268
  25.7400      258
  25.7550      313
  25.7700      355
  25.7850      396
  25.8000      496
  25.8150      548
  25.8300      590
  25.8450      584
  25.8600      535
  25.8750      443
  25.8900      389
  25.9050      308
  25.9200      265
  25.9350      239
  25.9500      247
  25.9650      233
  25.9800      209
  25.9950      195
  26.0100      200
  26.0250      174
  26.0400      177
  26.0550      165
  26.0700      177
  26.0850      179
  26.1000      168
  26.1150      195
  26.1300      170
  26.1450      187
  26.1600      169
  26.1750      157
  26.1900      165
  26.2050      165
  26.2200      171
  26.2350      163
  26.2500      167
  26.2650      177
  26.2800      177
  26.2950      208
  26.3100      211
  26.3250      219
  26.3400      224
  26.3550      215
  26.3700      228
  26.3850      221
  26.4000      170
  26.4150      164
  26.4300      184
  26.4450      170
  26.4600      175
  26.4750      194
  26.4900      181
  26.5050      175
  26.5200      187
  26.5350      213
  26.5500      223
  26.5650      295
  26.5800      355
  26.5950      440
  26.6100      587
  26.6250      679
  26.6400      775
  26.6550      826
  26.6700      815
  26.6850      672
  26.7000      556
  26.7150      408
  26.7300      321
  26.7450      263
  26.7600      227
  26.7750      209
  26.7900      219
  26.8050      223
  26.8200      234
  26.8350      234
  26.8500      237
  26.8650      260
  26.8800      256
  26.8950      266
  26.9100      283
  26.9250      303
  26.9400      344
  26.9550      372
  26.9700      427
  26.9850      449
  27.0000      498
  27.0150      521
  27.0300      488
  27.0450      415
  27.0600      411
  27.0750      362
  27.0900      298
  27.1050      266
  27.1200      264
  27.1350      261
  27.1500      245
  27.1650      234
  27.1800      217
  27.1950      201
  27.2100      216
  27.2250      217
  27.2400      225
  27.2550      226
  27.2700      230
  27.2850      243
  27.3000      252
  27.3150      309
  27.3300      391
  27.3450      500
  27.3600      578
  27.3750      697
  27.3900      813
  27.4050      866
  27.4200      929
  27.4350      918
  27.4500      821
  27.4650      655
  27.4800      573
  27.4950      432
  27.5100      352
  27.5250      359
  27.5400      364
  27.5550      399
  27.5700      460
  27.5850      472
  27.6000      459
  27.6150      410
  27.6300      396
  27.6450      419
  27.6600      423
  27.6750      417
  27.6900      428
  27.7050      449
  27.7200      419
  27.7350      413
  27.7500      371
  27.7650      344
  27.7800      297
  27.7950      287
  27.8100      266
  27.8250      231
  27.8400      205
  27.8550      185
  27.8700      185
  27.8850      193
  27.9000      171
  27.9150      151
  27.9300      150
  27.9450      162
  27.9600      138
  27.9750      152
  27.9900      143
  28.0050      159
  28.0200      163
  28.0350      169
  28.0500      180
  28.0650      179
  28.0800      169
  28.0950      188
  28.1100      171
  28.1250      165
  28.1400      167
  28.1550      160
  28.1700      149
  28.1850      152
  28.2000      156
  28.2150      159
  28.2300      157
  28.2450      155
  28.2600      154
  28.2750      200
  28.2900      201
  28.3050      196
  28.3200      199
  28.3350      182
  28.3500      171
  28.3650      195
  28.3800      173
  28.3950      199
  28.4100      197
  28.4250      210
  28.4400      208
  28.4550      207
  28.4700      226
  28.4850      208
  28.5000      171
  28.5150      167
  28.5300      169
  28.5450      139
  28.5600      143
  28.5750      169
  28.5900      162
  28.6050      168
  28.6200      163
  28.6350      171
  28.6500      168
  28.6650      196
  28.6800      198
  28.6950      215
  28.7100      207
  28.7250      170
  28.7400      176
  28.7550      183
  28.7700      185
  28.7850      159
  28.8000      143
  28.8150      138
  28.8300      154
  28.8450      152
  28.8600      119
  28.8750      135
  28.8900      138
  28.9050      115
  28.9200      140
  28.9350      138
  28.9500      133
  28.9650      150
  28.9800      174
  28.9950      191
  29.0100      210
  29.0250      213
  29.0400      217
  29.0550      199
  29.0700      203
  29.0850      181
  29.1000      155
  29.1150      134
  29.1300      144
  29.1450      129
  29.1600      148
  29.1750      133
  29.1900      121
  29.2050      133
  29.2200      123
  29.2350      129
  29.2500      143
  29.2650      135
  29.2800      140
  29.2950      144
  29.3100      154
  29.3250      157
  29.3400      141
  29.3550      133
  29.3700      146
  29.3850      157
  29.4000      149
  29.4150      135
  29.4300      139
  29.4450      148
  29.4600      129
  29.4750      119
  29.4900      122
  29.5050      104
  29.5200      113
  29.5350      107
  29.5500      126
  29.5650      138
  29.5800      124
  29.5950      123
  29.6100      126
  29.6250      138
  29.6400      127
  29.6550      128
  29.6700      134
  29.6850      128
  29.7000      116
  29.7150      128
  29.7300      123
  29.7450      102
  29.7600      113
  29.7750      124
  29.7900      112
  29.8050      122
  29.8200      120
  29.8350      106
  29.8500      126
  29.8650      129
  29.8800      114
  29.8950      110
  29.9100      122
  29.9250      132
  29.9400      158
  29.9550      134
  29.9700      134
  29.9850      118
  30.0000      128
  30.0150      129
  30.0300      126
  30.0450      126
  30.0600      133
  30.0750      123
  30.0900      130
  30.1050      136
  30.1200      109
  30.1350      118
  30.1500      124
  30.1650      129
  30.1800      134
  30.1950      133
  30.2100      143
  30.2250      127
  30.2400      120
  30.2550      116
  30.2700      144
  30.2850      154
  30.3000      140
  30.3150      188
  30.3300      171
  30.3450      175
  30.3600      183
  30.3750      213
  30.3900      231
  30.4050      241
  30.4200      245
  30.4350      252
  30.4500      250
  30.4650      226
  30.4800      191
  30.4950      187
  30.5100      150
  30.5250      166
  30.5400      161
  30.5550      165
  30.5700      156
  30.5850      162
  30.6000      168
  30.6150      180
  30.6300      195
  30.6450      157
  30.6600      164
  30.6750      149
  30.6900      142
  30.7050      123
  30.7200      129
  30.7350      141
  30.7500      131
  30.7650      127
  30.7800      117
  30.7950      126
  30.8100      124
  30.8250      116
  30.8400      120
  30.8550      126
  30.8700      126
  30.8850      145
  30.9000      132
  30.9150      131
  30.9300      148
  30.9450      138
  30.9600      125
  30.9750      152
  30.9900      159
  31.0050      185
  31.0200      209
  31.0350      224
  31.0500      227
  31.0650      251
  31.0800      239
  31.0950      235
  31.1100      263
  31.1250      249
  31.1400      237
  31.1550      225
  31.1700      244
  31.1850      206
  31.2000      200
  31.2150      192
  31.2300      169
  31.2450      161
  31.2600      138
  31.2750      157
  31.2900      160
  31.3050      142
  31.3200      147
  31.3350      153
  31.3500      145
  31.3650      126
  31.3800      150
  31.3950      161
  31.4100      182
  31.4250      176
  31.4400      172
  31.4550      180
  31.4700      194
  31.4850      203
  31.5000      201
  31.5150      185
  31.5300      165
  31.5450      162
  31.5600      174
  31.5750      146
  31.5900      135
  31.6050      133
  31.6200      149
  31.6350      143
  31.6500      147
  31.6650      159
  31.6800      149
  31.6950      151
  31.7100      160
  31.7250      165
  31.7400      173
  31.7550      170
  31.7700      167
  31.7850      166
  31.8000      170
  31.8150      173
  31.8300      157
  31.8450      173
  31.8600      190
  31.8750      211
  31.8900      220
  31.9050      194
  31.9200      202
  31.9350      233
  31.9500      241
  31.9650      235
  31.9800      203
  31.9950      216
  32.0100      231
  32.0250      220
  32.0400      186
  32.0550      190
  32.0700      199
  32.0850      167
  32.1000      143
  32.1150      169
  32.1300      148
  32.1450      129
  32.1600      138
  32.1750      138
  32.1900      156
  32.2050      129
  32.2200      152
  32.2350      163
  32.2500      151
  32.2650      161
  32.2800      172
  32.2950      175
  32.3100      191
  32.3250      200
  32.3400      212
  32.3550      204
  32.3700      201
  32.3850      197
  32.4000      169
  32.4150      169
  32.4300      174
  32.4450      167
  32.4600      158
  32.4750      156
  32.4900      129
  32.5050      128
  32.5200      116
  32.5350      132
  32.5500      146
  32.5650      138
  32.5800      134
  32.5950      146
  32.6100      165
  32.6250      158
  32.6400      148
  32.6550      157
  32.6700      166
  32.6850      162
  32.7000      160
  32.7150      180
  32.7300      160
  32.7450      142
  32.7600      134
  32.7750      121
  32.7900      145
  32.8050      140
  32.8200      140
  32.8350      116
  32.8500      112
  32.8650      121
  32.8800      132
  32.8950      116
  32.9100      114
  32.9250      117
  32.9400      146
  32.9550      147
  32.9700      155
  32.9850      151
  33.0000      133
  33.0150      118
  33.0300      149
  33.0450      137
  33.0600      139
  33.0750      152
  33.0900      136
  33.1050      154
  33.1200      182
  33.1350      213
  33.1500      234
  33.1650      241
  33.1800      275
  33.1950      276
  33.2100      294
  33.2250      297
  33.2400      297
  33.2550      249
  33.2700      224
  33.2850      209
  33.3000      190
  33.3150      208
  33.3300      181
  33.3450      178
  33.3600      195
  33.3750      163
  33.3900      165
  33.4050      161
  33.4200      148
  33.4350      138
  33.4500      135
  33.4650      143
  33.4800      164
  33.4950      157
  33.5100      151
  33.5250      167
  33.5400      173
  33.5550      170
  33.5700      192
  33.5850      210
  33.6000      192
  33.6150      174
  33.6300      219
  33.6450      205
  33.6600      199
  33.6750      194
  33.6900      195
  33.7050      184
  33.7200      176
  33.7350      172
  33.7500      166
  33.7650      159
  33.7800      139
  33.7950      142
  33.8100      149
  33.8250      143
  33.8400      128
  33.8550      124
  33.8700      122
  33.8850      116
  33.9000      134
  33.9150      138
  33.9300      120
  33.9450      115
  33.9600      114
  33.9750      141
  33.9900      122
  34.0050      117
  34.0200      137
  34.0350      150
  34.0500      154
  34.0650      152
  34.0800      149
  34.0950      134
  34.1100      155
  34.1250      140
  34.1400      160
  34.1550      165
  34.1700      138
  34.1850      147
  34.2000      154
  34.2150      143
  34.2300      158
  34.2450      152
  34.2600      161
  34.2750      162
  34.2900      154
  34.3050      141
  34.3200      164
  34.3350      186
  34.3500      165
  34.3650      192
  34.3800      209
  34.3950      193
  34.4100      230
  34.4250      206
  34.4400      207
  34.4550      201
  34.4700      213
  34.4850      184
  34.5000      162
  34.5150      157
  34.5300      182
  34.5450      215
  34.5600      218
  34.5750      227
  34.5900      221
  34.6050      242
  34.6200      236
  34.6350      213
  34.6500      253
  34.6650      204
  34.6800      199
  34.6950      194
  34.7100      182
  34.7250      163
  34.7400      162
  34.7550      144
  34.7700      128
  34.7850      130
  34.8000      133
  34.8150      144
  34.8300      128
  34.8450      122
  34.8600      114
  34.8750      117
  34.8900      130
  34.9050      126
  34.9200      111
  34.9350      133
  34.9500      127
  34.9650      130
  34.9800      130
  34.9950      124
  35.0100      122
  35.0250      125
  35.0400      109
  35.0550      107
  35.0700      121
  35.0850      146
  35.1000      160
  35.1150      127
  35.1300      147
  35.1450      138
  35.1600      142
  35.1750      156
  35.1900      148
  35.2050      163
  35.2200      177
  35.2350      181
  35.2500      189
  35.2650      194
  35.2800      186
  35.2950      177
  35.3100      182
  35.3250      191
  35.3400      220
  35.3550      230
  35.3700      233
  35.3850      225
  35.4000      184
  35.4150      187
  35.4300      164
  35.4450      167
  35.4600      162
  35.4750      160
  35.4900      166
  35.5050      172
  35.5200      186
  35.5350      218
  35.5500      228
  35.5650      221
  35.5800      232
  35.5950      244
  35.6100      251
  35.6250      242
  35.6400      221
  35.6550      194
  35.6700      189
  35.6850      179
  35.7000      169
  35.7150      168
  35.7300      172
  35.7450      181
  35.7600      153
  35.7750      137
  35.7900      128
  35.8050      148
  35.8200      142
  35.8350      129
  35.8500      154
  35.8650      152
  35.8800      156
  35.8950      160
  35.9100      181
  35.9250      197
  35.9400      198
  35.9550      207
  35.9700      217
  35.9850      196
  36.0000      179
  36.0150      204
  36.0300      206
  36.0450      195
  36.0600      172
  36.0750      199
  36.0900      207
  36.1050      201
  36.1200      192
  36.1350      216
  36.1500      226
  36.1650      205
  36.1800      198
  36.1950      197
  36.2100      204
  36.2250      226
  36.2400      231
  36.2550      221
  36.2700      226
  36.2850      257
  36.3000      238
  36.3150      307
  36.3300      347
  36.3450      360
  36.3600      358
  36.3750      361
  36.3900      400
  36.4050      434
  36.4200      422
  36.4350      382
  36.4500      356
  36.4650      360
  36.4800      348
  36.4950      310
  36.5100      266
  36.5250      266
  36.5400      250
  36.5550      242
  36.5700      229
  36.5850      224
  36.6000      232
  36.6150      208
  36.6300      216
  36.6450      217
  36.6600      191
  36.6750      181
  36.6900      160
  36.7050      163
  36.7200      173
  36.7350      159
  36.7500      153
  36.7650      165
  36.7800      171
  36.7950      173
  36.8100      148
  36.8250      140
  36.8400      155
  36.8550      163
  36.8700      166
  36.8850      165
  36.9000      152
  36.9150      142
  36.9300      149
  36.9450      158
  36.9600      198
  36.9750      183
  36.9900      187
  37.0050      182
  37.0200      161
  37.0350      182
  37.0500      181
  37.0650      163
  37.0800      171
  37.0950      162
  37.1100      172
  37.1250      144
  37.1400      148
  37.1550      148
  37.1700      150
  37.1850      165
  37.2000      168
  37.2150      193
  37.2300      191
  37.2450      176
  37.2600      197
  37.2750      230
  37.2900      261
  37.3050      246
  37.3200      250
  37.3350      256
  37.3500      252
  37.3650      261
  37.3800      239
  37.3950      211
  37.4100      205
  37.4250      165
  37.4400      174
  37.4550      174
  37.4700      172
  37.4850      163
  37.5000      160
  37.5150      187
  37.5300      177
  37.5450      171
  37.5600      166
  37.5750      186
  37.5900      173
  37.6050      166
  37.6200      162
  37.6350      163
  37.6500      159
  37.6650      154
  37.6800      172
  37.6950      178
  37.7100      161
  37.7250      163
  37.7400      174
  37.7550      162
  37.7700      153
  37.7850      168
  37.8000      177
  37.8150      175
  37.8300      170
  37.8450      182
  37.8600      197
  37.8750      209
  37.8900      215
  37.9050      233
  37.9200      220
  37.9350      230
  37.9500      228
  37.9650      219
  37.9800      208
  37.9950      216
  38.0100      203
  38.0250      171
  38.0400      170
  38.0550      180
  38.0700      192
  38.0850      180
  38.1000      213
  38.1150      199
  38.1300      231
  38.1450      223
  38.1600      222
  38.1750      235
  38.1900      239
  38.2050      246
  38.2200      265
  38.2350      226
  38.2500      209
  38.2650      201
  38.2800      170
  38.2950      161
  38.3100      175
  38.3250      164
  38.3400      163
  38.3550      176
  38.3700      162
  38.3850      176
  38.4000      156
  38.4150      166
  38.4300      177
  38.4450      174
  38.4600      168
  38.4750      167
  38.4900      193
  38.5050      201
  38.5200      169
  38.5350      182
  38.5500      160
  38.5650      178
  38.5800      196
  38.5950      179
  38.6100      172
  38.6250      161
  38.6400      144
  38.6550      163
  38.6700      159
  38.6850      152
  38.7000      156
  38.7150      154
  38.7300      151
  38.7450      164
  38.7600      171
  38.7750      163
  38.7900      160
  38.8050      173
  38.8200      218
  38.8350      198
  38.8500      211
  38.8650      205
  38.8800      216
  38.8950      234
  38.9100      216
  38.9250      190
  38.9400      193
  38.9550      200
  38.9700      175
  38.9850      178
  39.0000      178
  39.0150      181
  39.0300      190
  39.0450      176
  39.0600      152
  39.0750      159
  39.0900      160
  39.1050      178
  39.1200      176
  39.1350      154
  39.1500      146
  39.1650      154
  39.1800      129
  39.1950      130
  39.2100      141
  39.2250      127
  39.2400      138
  39.2550      134
  39.2700      137
  39.2850      142
  39.3000      152
  39.3150      141
  39.3300      153
  39.3450      131
  39.3600      157
  39.3750      149
  39.3900      160
  39.4050      142
  39.4200      135
  39.4350      160
  39.4500      131
  39.4650      127
  39.4800      141
  39.4950      134
  39.5100      144
  39.5250      153
  39.5400      159
  39.5550      154
  39.5700      186
  39.5850      199
  39.6000      178
  39.6150      167
  39.6300      185
  39.6450      189
  39.6600      186
  39.6750      176
  39.6900      181
  39.7050      164
  39.7200      149
  39.7350      146
  39.7500      158
  39.7650      154
  39.7800      140
  39.7950      164
  39.8100      149
  39.8250      156
  39.8400      166
  39.8550      170
  39.8700      166
  39.8850      178
  39.9000      180
  39.9150      172
  39.9300      175
  39.9450      165
  39.9600      168
  39.9750      163
  39.9900      137
  40.0050      144
  40.0200      163
  40.0350      154
  40.0500      145
  40.0650      165
  40.0800      152
  40.0950      174
  40.1100      176
  40.1250      165
  40.1400      183
  40.1550      150
  40.1700      151
  40.1850      155
  40.2000      149
  40.2150      159
  40.2300      141
  40.2450      138
  40.2600      136
  40.2750      126
  40.2900      130
  40.3050      132
  40.3200      138
  40.3350      144
  40.3500      135
  40.3650      131
  40.3800      147
  40.3950      162
  40.4100      156
  40.4250      151
  40.4400      158
  40.4550      187
  40.4700      180
  40.4850      161
  40.5000      177
  40.5150      176
  40.5300      171
  40.5450      167
  40.5600      159
  40.5750      171
  40.5900      148
  40.6050      169
  40.6200      183
  40.6350      188
  40.6500      191
  40.6650      204
  40.6800      208
  40.6950      208
  40.7100      205
  40.7250      207
  40.7400      195
  40.7550      190
  40.7700      183
  40.7850      195
  40.8000      169
  40.8150      169
  40.8300      168
  40.8450      163
  40.8600      168
  40.8750      161
  40.8900      166
  40.9050      170
  40.9200      142
  40.9350      136
  40.9500      148
  40.9650      154
  40.9800      127
  40.9950      137
  41.0100      132
  41.0250      126
  41.0400      128
  41.0550      106
  41.0700      117
  41.0850      128
  41.1000      119
  41.1150      109
  41.1300      118
  41.1450      126
  41.1600      126
  41.1750      134
  41.1900      122
  41.2050      113
  41.2200      114
  41.2350      119
  41.2500      128
  41.2650      129
  41.2800      130
  41.2950      133
  41.3100      159
  41.3250      184
  41.3400      156
  41.3550      152
  41.3700      164
  41.3850      171
  41.4000      174
  41.4150      191
  41.4300      194
  41.4450      194
  41.4600      191
  41.4750      183
  41.4900      195
  41.5050      194
  41.5200      190
  41.5350      207
  41.5500      190
  41.5650      197
  41.5800      169
  41.5950      170
  41.6100      151
  41.6250      152
  41.6400      154
  41.6550      154
  41.6700      148
  41.6850      161
  41.7000      168
  41.7150      144
  41.7300      157
  41.7450      165
  41.7600      159
  41.7750      155
  41.7900      151
  41.8050      134
  41.8200      133
  41.8350      137
  41.8500      130
  41.8650      146
  41.8800      152
  41.8950      158
  41.9100      157
  41.9250      152
  41.9400      159
  41.9550      149
  41.9700      164
  41.9850      176
  42.0000      164
  42.0150      165
  42.0300      154
  42.0450      175
  42.0600      176
  42.0750      155
  42.0900      169
  42.1050      156
  42.1200      153
  42.1350      167
  42.1500      155
  42.1650      150
  42.1800      147
  42.1950      155
  42.2100      131
  42.2250      157
  42.2400      156
  42.2550      168
  42.2700      160
  42.2850      163
  42.3000      203
  42.3150      192
  42.3300      184
  42.3450      168
  42.3600      162
  42.3750      170
  42.3900      176
  42.4050      183
  42.4200      149
  42.4350      146
  42.4500      137
  42.4650      135
  42.4800      139
  42.4950      141
  42.5100      126
  42.5250      136
  42.5400      138
  42.5550      128
  42.5700      135
  42.5850      130
  42.6000      124
  42.6150      120
  42.6300      110
  42.6450      118
  42.6600      131
  42.6750      134
  42.6900      142
  42.7050      144
  42.7200      135
  42.7350      151
  42.7500      158
  42.7650      139
  42.7800      152
  42.7950      165
  42.8100      157
  42.8250      151
  42.8400      173
  42.8550      178
  42.8700      181
  42.8850      178
  42.9000      207
  42.9150      217
  42.9300      188
  42.9450      188
  42.9600      166
  42.9750      176
  42.9900      162
  43.0050      155
  43.0200      126
  43.0350      140
  43.0500      141
  43.0650      123
  43.0800      152
  43.0950      134
  43.1100      130
  43.1250      142
  43.1400      145
  43.1550      150
  43.1700      137
  43.1850      153
  43.2000      168
  43.2150      164
  43.2300      171
  43.2450      190
  43.2600      178
  43.2750      174
  43.2900      194
  43.3050      178
  43.3200      171
  43.3350      169
  43.3500      175
  43.3650      183
  43.3800      171
  43.3950      134
  43.4100      134
  43.4250      137
  43.4400      166
  43.4550      146
  43.4700      140
  43.4850      135
  43.5000      141
  43.5150      150
  43.5300      147
  43.5450      132
  43.5600      137
  43.5750      142
  43.5900      157
  43.6050      179
  43.6200      165
  43.6350      149
  43.6500      150
  43.6650      157
  43.6800      153
  43.6950      162
  43.7100      145
  43.7250      133
  43.7400      140
  43.7550      161
  43.7700      157
  43.7850      160
  43.8000      141
  43.8150      155
  43.8300      134
  43.8450      133
  43.8600      130
  43.8750      116
  43.8900      142
  43.9050      131
  43.9200      124
  43.9350      101
  43.9500      126
  43.9650      137
  43.9800      111
  43.9950      135
  44.0100      121
  44.0250      140
  44.0400      142
  44.0550      152
  44.0700      152
  44.0850      139
  44.1000      156
  44.1150      140
  44.1300      126
  44.1450      131
  44.1600      127
  44.1750      121
  44.1900      124
  44.2050      131
  44.2200      103
  44.2350      108
  44.2500      121
  44.2650      113
  44.2800      123
  44.2950      129
  44.3100      133
  44.3250      127
  44.3400      124
  44.3550      132
  44.3700      148
  44.3850      125
  44.4000      117
  44.4150      128
  44.4300      142
  44.4450      156
  44.4600      150
  44.4750      149
  44.4900      160
  44.5050      170
  44.5200      160
  44.5350      168
  44.5500      159
  44.5650      171
  44.5800      169
  44.5950      154
  44.6100      156
  44.6250      143
  44.6400      154
  44.6550      137
  44.6700      138
  44.6850      122
  44.7000      108
  44.7150      115
  44.7300      114
  44.7450      105
  44.7600      113
  44.7750      123
  44.7900      133
  44.8050      115
  44.8200       99
  44.8350      101
  44.8500      112
  44.8650      104
  44.8800      108
  44.8950      113
  44.9100      116
  44.9250      104
  44.9400      103
  44.9550      109
  44.9700      113
  44.9850      119
  45.0000      114
  45.0150      116
  45.0300      109
  45.0450      119
  45.0600      119
  45.0750      118
  45.0900      117
  45.1050      106
  45.1200       98
  45.1350       98
  45.1500       86
  45.1650       98
  45.1800       99
  45.1950       96
  45.2100      104
  45.2250      111
  45.2400      111
  45.2550      112
  45.2700      114
  45.2850      117
  45.3000      117
  45.3150      115
  45.3300      137
  45.3450      126
  45.3600      124
  45.3750      127
  45.3900      133
  45.4050      123
  45.4200      132
  45.4350      135
  45.4500      133
  45.4650      135
  45.4800      130
  45.4950      143
  45.5100      137
  45.5250      144
  45.5400      151
  45.5550      139
  45.5700      126
  45.5850      117
  45.6000      112
  45.6150      101
  45.6300      112
  45.6450      126
  45.6600      114
  45.6750      108
  45.6900       98
  45.7050       93
  45.7200      112
  45.7350       93
  45.7500       93
  45.7650       97
  45.7800      101
  45.7950      100
  45.8100       88
  45.8250       93
  45.8400      101
  45.8550      102
  45.8700       95
  45.8850      102
  45.9000       94
  45.9150       81
  45.9300      100
  45.9450      105
  45.9600       95
  45.9750       93
  45.9900      122
  46.0050      105
  46.0200      105
  46.0350      109
  46.0500      115
  46.0650      106
  46.0800      113
  46.0950      102
  46.1100       92
  46.1250      101
  46.1400      107
  46.1550      101
  46.1700      107
  46.1850       97
  46.2000      103
  46.2150      106
  46.2300       87
  46.2450       91
  46.2600       93
  46.2750      107
  46.2900       93
  46.3050       96
  46.3200      102
  46.3350       96
  46.3500      106
  46.3650      104
  46.3800       95
  46.3950       99
  46.4100       97
  46.4250       89
  46.4400       92
  46.4550       92
  46.4700       99
  46.4850      107
  46.5000       95
  46.5150       87
  46.5300       96
  46.5450      106
  46.5600       99
  46.5750      105
  46.5900       90
  46.6050       87
  46.6200       82
  46.6350       81
  46.6500       85
  46.6650       91
  46.6800       94
  46.6950       81
  46.7100       89
  46.7250      101
  46.7400       90
  46.7550       96
  46.7700       96
  46.7850      100
  46.8000      104
  46.8150       93
  46.8300       95
  46.8450      106
  46.8600      108
  46.8750      117
  46.8900      102
  46.9050       98
  46.9200       92
  46.9350       86
  46.9500       96
  46.9650       89
  46.9800      103
  46.9950      107
  47.0100       91
  47.0250       91
  47.0400       92
  47.0550       97
  47.0700      102
  47.0850       98
  47.1000      101
  47.1150      104
  47.1300      126
  47.1450      115
  47.1600      118
  47.1750      111
  47.1900      110
  47.2050      106
  47.2200      108
  47.2350      112
  47.2500      113
  47.2650      120
  47.2800      124
  47.2950      132
  47.3100      123
  47.3250      116
  47.3400      113
  47.3550      124
  47.3700      128
  47.3850      113
  47.4000      126
  47.4150      122
  47.4300      130
  47.4450      116
  47.4600      134
  47.4750      135
  47.4900      149
  47.5050      114
  47.5200      106
  47.5350       96
  47.5500       92
  47.5650       85
  47.5800       89
  47.5950      101
  47.6100      104
  47.6250      101
  47.6400       99
  47.6550       90
  47.6700       96
  47.6850      101
  47.7000       98
  47.7150      107
  47.7300       90
  47.7450      115
  47.7600      105
  47.7750      101
  47.7900       92
  47.8050      105
  47.8200       91
  47.8350       99
  47.8500      108
  47.8650       97
  47.8800       91
  47.8950       97
  47.9100      108
  47.9250      111
  47.9400      106
  47.9550      115
  47.9700      117
  47.9850       97
  48.0000       95
  48.0150      105
  48.0300       99
  48.0450      100
  48.0600       94
  48.0750      103
  48.0900       90
  48.1050       88
  48.1200      108
  48.1350      103
  48.1500      115
  48.1650      122
  48.1800      102
  48.1950      109
  48.2100      104
  48.2250      102
  48.2400       94
  48.2550      118
  48.2700      106
  48.2850      104
  48.3000      105
  48.3150      111
  48.3300      106
  48.3450       79
  48.3600       94
  48.3750      102
  48.3900       88
  48.4050       85
  48.4200       93
  48.4350      105
  48.4500       97
  48.4650       98
  48.4800      101
  48.4950       84
  48.5100       86
  48.5250       95
  48.5400       77
  48.5550       90
  48.5700       75
  48.5850       84
  48.6000       95
  48.6150       96
  48.6300       93
  48.6450       96
  48.6600       91
  48.6750       83
  48.6900       93
  48.7050       99
  48.7200       94
  48.7350       85
  48.7500       97
  48.7650      102
  48.7800      100
  48.7950       88
  48.8100       94
  48.8250       84
  48.8400       84
  48.8550       78
  48.8700      103
  48.8850      105
  48.9000       98
  48.9150       94
  48.9300       95
  48.9450      112
  48.9600       96
  48.9750       99
  48.9900      109
  49.0050      115
  49.0200       97
  49.0350       91
  49.0500      112
  49.0650      105
  49.0800       92
  49.0950       89
  49.1100       97
  49.1250      114
  49.1400       96
  49.1550      108
  49.1700      106
  49.1850      114
  49.2000      122
  49.2150      112
  49.2300      120
  49.2450      127
  49.2600      123
  49.2750      120
  49.2900      119
  49.3050      101
  49.3200      100
  49.3350      117
  49.3500      112
  49.3650      106
  49.3800       96
  49.3950       95
  49.4100       90
  49.4250      104
  49.4400       93
  49.4550      101
  49.4700      109
  49.4850      105
  49.5000      118
  49.5150      102
  49.5300      102
  49.5450      102
  49.5600      101
  49.5750      113
  49.5900      104
  49.6050      100
  49.6200       96
  49.6350      103
  49.6500      114
  49.6650       98
  49.6800      108
  49.6950      106
  49.7100       93
  49.7250      106
  49.7400      104
  49.7550      103
  49.7700       88
  49.7850       90
  49.8000       91
  49.8150      103
  49.8300       94
  49.8450       93
  49.8600       89
  49.8750       76
  49.8900       82
  49.9050       90
  49.9200       95
  49.9350       89
  49.9500       89
  49.9650      108
  49.9800       93
  49.9950      107
  50.0100       99
  50.0250      110
  50.0400      114
  50.0550      117
  50.0700      108
  50.0850      126
  50.1000      128
  50.1150      107
  50.1300      111
  50.1450      112
  50.1600      109
  50.1750      118
  50.1900      132
  50.2050      109
  50.2200      108
  50.2350      126
  50.2500      118
  50.2650      131
  50.2800      121
  50.2950      127
  50.3100      121
  50.3250      124
  50.3400      109
  50.3550      100
  50.3700      106
  50.3850      112
  50.4000      127
  50.4150      114
  50.4300      109
  50.4450      107
  50.4600       99
  50.4750      103
  50.4900      102
  50.5050       90
  50.5200       91
  50.5350       92
  50.5500      107
  50.5650       91
  50.5800       95
  50.5950       99
  50.6100       86
  50.6250       89
  50.6400       79
  50.6550       89
  50.6700       86
  50.6850       86
  50.7000       86
  50.7150       93
  50.7300      100
  50.7450       90
  50.7600       86
  50.7750       93
  50.7900       97
  50.8050       96
  50.8200      104
  50.8350       93
  50.8500      111
  50.8650       95
  50.8800       91
  50.8950      104
  50.9100      101
  50.9250       89
  50.9400       97
  50.9550      114
  50.9700       96
  50.9850      109
  51.0000      118
  51.0150      131
  51.0300       98
  51.0450      102
  51.0600      106
  51.0750      107
  51.0900      120
  51.1050      108
  51.1200      113
  51.1350      129
  51.1500      128
  51.1650      127
  51.1800      120
  51.1950      106
  51.2100      108
  51.2250      112
  51.2400      104
  51.2550      107
  51.2700      106
  51.2850       96
  51.3000      105
  51.3150      112
  51.3300      109
  51.3450      119
  51.3600      122
  51.3750      111
  51.3900      112
  51.4050      112
  51.4200      107
  51.4350      102
  51.4500      112
  51.4650      117
  51.4800       95
  51.4950       93
  51.5100      100
  51.5250       82
  51.5400       98
  51.5550       94
  51.5700      108
  51.5850       83
  51.6000      100
  51.6150      109
  51.6300      120
  51.6450      110
  51.6600      112
  51.6750      113
  51.6900      102
  51.7050      122
  51.7200      133
  51.7350      123
  51.7500      123
  51.7650      124
  51.7800      118
  51.7950      125
  51.8100      139
  51.8250      129
  51.8400      141
  51.8550      146
  51.8700      131
  51.8850      134
  51.9000      122
  51.9150      115
  51.9300      122
  51.9450      122
  51.9600      117
  51.9750      118
  51.9900      114
  52.0050      108
  52.0200      134
  52.0350      128
  52.0500      127
  52.0650      130
  52.0800      131
  52.0950      127
  52.1100      123
  52.1250      110
  52.1400      117
  52.1550      125
  52.1700      106
  52.1850      110
  52.2000      104
  52.2150      105
  52.2300      107
  52.2450       94
  52.2600      102
  52.2750      116
  52.2900      113
  52.3050      117
  52.3200      111
  52.3350      115
  52.3500      114
  52.3650      118
  52.3800      115
  52.3950      118
  52.4100      135
  52.4250      134
  52.4400      120
  52.4550      123
  52.4700      129
  52.4850      132
  52.5000      135
  52.5150      113
  52.5300      116
  52.5450      125
  52.5600      126
  52.5750      123
  52.5900      125
  52.6050      101
  52.6200      113
  52.6350      108
  52.6500      105
  52.6650      113
  52.6800      126
  52.6950      114
  52.7100      107
  52.7250      117
  52.7400      121
  52.7550      116
  52.7700      102
  52.7850      113
  52.8000      117
  52.8150      115
  52.8300      101
  52.8450       97
  52.8600      100
  52.8750       96
  52.8900       96
  52.9050       96
  52.9200       85
  52.9350      105
  52.9500      107
  52.9650      119
  52.9800      115
  52.9950       95
  53.0100      115
  53.0250      108
  53.0400      113
  53.0550      130
  53.0700      104
  53.0850      110
  53.1000      108
  53.1150       99
  53.1300       85
  53.1450       90
  53.1600       92
  53.1750      105
  53.1900      100
  53.2050      112
  53.2200      111
  53.2350      112
  53.2500      107
  53.2650      113
  53.2800      112
  53.2950      102
  53.3100      107
  53.3250      109
  53.3400      112
  53.3550      107
  53.3700      104
  53.3850      118
  53.4000      119
  53.4150      101
  53.4300      111
  53.4450      110
  53.4600      105
  53.4750      111
  53.4900      101
  53.5050      102
  53.5200      106
  53.5350      119
  53.5500      118
  53.5650      112
  53.5800      119
  53.5950      100
  53.6100      112
  53.6250      103
  53.6400      102
  53.6550      118
  53.6700      124
  53.6850      111
  53.7000      108
  53.7150      113
  53.7300      119
  53.7450      127
  53.7600      120
  53.7750      111
  53.7900      102
  53.8050      127
  53.8200      112
  53.8350      112
  53.8500      123
  53.8650      117
  53.8800      124
  53.8950      120
  53.9100      117
  53.9250      117
  53.9400      133
  53.9550      120
  53.9700      137
  53.9850      138
  54.0000      110
  54.0150      116
  54.0300      120
  54.0450      125
  54.0600      110
  54.0750      119
  54.0900      111
  54.1050      105
  54.1200      109
  54.1350      128
  54.1500      110
  54.1650      114
  54.1800       99
  54.1950      103
  54.2100      124
  54.2250      113
  54.2400      107
  54.2550      113
  54.2700       95
  54.2850       91
  54.3000       89
  54.3150      118
  54.3300       98
  54.3450      104
  54.3600       97
  54.3750       87
  54.3900       80
  54.4050      102
  54.4200       89
  54.4350       89
  54.4500       95
  54.4650       98
  54.4800       94
  54.4950       91
  54.5100      100
  54.5250       81
  54.5400       90
  54.5550      108
  54.5700      106
  54.5850       93
  54.6000       96
  54.6150      111
  54.6300      100
  54.6450       99
  54.6600      109
  54.6750      109
  54.6900      101
  54.7050      101
  54.7200       94
  54.7350      111
  54.7500      101
  54.7650      110
  54.7800       98
  54.7950      112
  54.8100      111
  54.8250      100
  54.8400      113
  54.8550       87
  54.8700      110
  54.8850      104
  54.9000       99
  54.9150      112
  54.9300      102
  54.9450       94
  54.9600       94
  54.9750      101
  54.9900      106
  55.0050       84
  55.0200       89
  55.0350      102
  55.0500      102
  55.0650      100
  55.0800       91
  55.0950       84
  55.1100       95
  55.1250       87
  55.1400       86
  55.1550       78
  55.1700       88
  55.1850       85
  55.2000       82
  55.2150       96
  55.2300      101
  55.2450      106
  55.2600       99
  55.2750       88
  55.2900       93
  55.3050       90
  55.3200       82
  55.3350       90
  55.3500       86
  55.3650       97
  55.3800      105
  55.3950      111
  55.4100      108
  55.4250      101
  55.4400       86
  55.4550       94
  55.4700       85
  55.4850       99
  55.5000       93
  55.5150      111
  55.5300      111
  55.5450       87
  55.5600       91
  55.5750       90
  55.5900      106
  55.6050      104
  55.6200      104
  55.6350       93
  55.6500      101
  55.6650      119
  55.6800      114
  55.6950      117
  55.7100      106
  55.7250      106
  55.7400      126
  55.7550      118
  55.7700      117
  55.7850       95
  55.8000      104
  55.8150      116
  55.8300      121
  55.8450      122
  55.8600      126
  55.8750      120
  55.8900      118
  55.9050      126
  55.9200      110
  55.9350      109
  55.9500      118
  55.9650      119
  55.9800      121
  55.9950      105
  56.0100      102
  56.0250      117
  56.0400      107
  56.0550      102
  56.0700      105
  56.0850       87
  56.1000       95
  56.1150      109
  56.1300      121
  56.1450       97
  56.1600       92
  56.1750       93
  56.1900       89
  56.2050       91
  56.2200       90
  56.2350       96
  56.2500       94
  56.2650       88
  56.2800       85
  56.2950      104
  56.3100      102
  56.3250       86
  56.3400       89
  56.3550       94
  56.3700       93
  56.3850       89
  56.4000       83
  56.4150       82
  56.4300       92
  56.4450      100
  56.4600       95
  56.4750       85
  56.4900       93
  56.5050       90
  56.5200      107
  56.5350      108
  56.5500       87
  56.5650      112
  56.5800       92
  56.5950       82
  56.6100       92
  56.6250       98
  56.6400       99
  56.6550      103
  56.6700       94
  56.6850      103
  56.7000      103
  56.7150       89
  56.7300      103
  56.7450      110
  56.7600      107
  56.7750      102
  56.7900      109
  56.8050      107
  56.8200      100
  56.8350      103
  56.8500       88
  56.8650       93
  56.8800       80
  56.8950       95
  56.9100       90
  56.9250       91
  56.9400       98
  56.9550       98
  56.9700       95
  56.9850       81
  57.0000       95
  57.0150       84
  57.0300       93
  57.0450      117
  57.0600      107
  57.0750       97
  57.0900       96
  57.1050      102
  57.1200       91
  57.1350       89
  57.1500      105
  57.1650      100
  57.1800       82
  57.1950      113
  57.2100      106
  57.2250      100
  57.2400      109
  57.2550      108
  57.2700      111
  57.2850      102
  57.3000      100
  57.3150       90
  57.3300       98
  57.3450      119
  57.3600      101
  57.3750      104
  57.3900      102
  57.4050      106
  57.4200      110
  57.4350      100
  57.4500      108
  57.4650      126
  57.4800      110
  57.4950      120
  57.5100      130
  57.5250      117
  57.5400      111
  57.5550      107
  57.5700      105
  57.5850      112
  57.6000      113
  57.6150      109
  57.6300      113
  57.6450      105
  57.6600       83
  57.6750       83
  57.6900       96
  57.7050       99
  57.7200       89
  57.7350      106
  57.7500      100
  57.7650       92
  57.7800       94
  57.7950       93
  57.8100      100
  57.8250       98
  57.8400       94
  57.8550       87
  57.8700       78
  57.8850       77
  57.9000       72
  57.9150       88
  57.9300       96
  57.9450      104
  57.9600       85
  57.9750       84
  57.9900       87
  58.0050       91
  58.0200       80
  58.0350       85
  58.0500       88
  58.0650      100
  58.0800       80
  58.0950       83
  58.1100       78
  58.1250       98
  58.1400      106
  58.1550      102
  58.1700       96
  58.1850       83
  58.2000      103
  58.2150      111
  58.2300       90
  58.2450      101
  58.2600      119
  58.2750      113
  58.2900      107
  58.3050      107
  58.3200      105
  58.3350       94
  58.3500      101
  58.3650       95
  58.3800      105
  58.3950       96
  58.4100      104
  58.4250       96
  58.4400      104
  58.4550      119
  58.4700      111
  58.4850       98
  58.5000       93
  58.5150       88
  58.5300       98
  58.5450       91
  58.5600       89
  58.5750       99
  58.5900       90
  58.6050       89
  58.6200       91
  58.6350       88
  58.6500       87
  58.6650       92
  58.6800       87
  58.6950       84
  58.7100       87
  58.7250       94
  58.7400       96
  58.7550      100
  58.7700       94
  58.7850       87
  58.8000       85
  58.8150       82
  58.8300       89
  58.8450       88
  58.8600       99
  58.8750      102
  58.8900       87
  58.9050       85
  58.9200       97
  58.9350       89
  58.9500       96
  58.9650      110
  58.9800       97
  58.9950       97
  59.0100       94
  59.0250      109
  59.0400      102
  59.0550      104
  59.0700      100
  59.0850      107
  59.1000      113
  59.1150       86
  59.1300       87
  59.1450       97
  59.1600      106
  59.1750       88
  59.1900       81
  59.2050       93
  59.2200       90
  59.2350       95
  59.2500       94
  59.2650      115
  59.2800      102
  59.2950       92
  59.3100       88
  59.3250       92
  59.3400       90
  59.3550       98
  59.3700       95
  59.3850       90
  59.4000       91
  59.4150      102
  59.4300       97
  59.4450       99
  59.4600      106
  59.4750       95
  59.4900      105
  59.5050      104
  59.5200      106
  59.5350       99
  59.5500      100
  59.5650      107
  59.5800      109
  59.5950       92
  59.6100       84
  59.6250       87
  59.6400       88
  59.6550       83
  59.6700       78
  59.6850       82
  59.7000       95
  59.7150       81
  59.7300       98
  59.7450       78
  59.7600       77
  59.7750       86
  59.7900       78
  59.8050       76
  59.8200       90
  59.8350       82
  59.8500       86
  59.8650       91
  59.8800       78
  59.8950       63
  59.9100       68
  59.9250       85
  59.9400       91
  59.9550       93
  59.9700       88
  59.9850       79
  60.0000       78
  60.0150       81
  60.0300       80
  60.0450       68
  60.0600       68
  60.0750       75
  60.0900       83
  60.1050       94
  60.1200       80
  60.1350       81
  60.1500       66
  60.1650       87
  60.1800       82
  60.1950       74
  60.2100       79
  60.2250       87
  60.2400       76
  60.2550       92
  60.2700       92
  60.2850       88
  60.3000       89
  60.3150      105
  60.3300      100
  60.3450       89
  60.3600       95
  60.3750       92
  60.3900       85
  60.4050       96
  60.4200       82
  60.4350       85
  60.4500       81
  60.4650       86
  60.4800       93
  60.4950       98
  60.5100       92
  60.5250       90
  60.5400       76
  60.5550       82
  60.5700       95
  60.5850       88
  60.6000       78
  60.6150       95
  60.6300       87
  60.6450       78
  60.6600       78
  60.6750       69
  60.6900       69
  60.7050       69
  60.7200       76
  60.7350       82
  60.7500       94
  60.7650       82
