1.111938476999999921e+03;3.651433899999999966e+01
1.110833984000000100e+03;5.248936100000000238e+01
1.109729491999999937e+03;4.335195199999999716e+01
1.108625000000000000e+03;4.562434400000000068e+01
1.107519530999999915e+03;3.421128499999999661e+01
1.106415038999999979e+03;4.104517400000000293e+01
1.105309569999999894e+03;3.419733399999999790e+01
1.104204101999999921e+03;5.242520900000000239e+01
1.103097655999999915e+03;4.102004600000000067e+01
1.101992187999999942e+03;4.784694300000000311e+01
1.100885741999999937e+03;3.644736100000000079e+01
1.099779297000000042e+03;2.505243499999999912e+01
1.098672851999999921e+03;3.415541799999999739e+01
1.097565430000000106e+03;3.414842199999999650e+01
1.096458008000000063e+03;3.641752199999999817e+01
1.095350586000000021e+03;3.185879699999999914e+01
1.094243163999999979e+03;3.640258399999999739e+01
1.093135741999999937e+03;4.549388900000000291e+01
1.092027344000000085e+03;3.866186499999999882e+01
1.090918944999999894e+03;3.183264000000000138e+01
1.089810547000000042e+03;4.546585100000000068e+01
1.088702148000000079e+03;4.772932099999999878e+01
1.087592773000000079e+03;4.317478200000000044e+01
1.086483398000000079e+03;4.089400100000000293e+01
1.085374023000000079e+03;3.861415499999999668e+01
1.084264648000000079e+03;4.769000199999999978e+01
1.083154297000000042e+03;4.086871299999999962e+01
1.082044922000000042e+03;4.313029499999999672e+01
1.080934569999999894e+03;3.858229399999999742e+01
1.079823241999999937e+03;4.084339899999999801e+01
1.078712890999999900e+03;3.629773699999999792e+01
1.077601562999999942e+03;4.309464599999999734e+01
1.076490234000000100e+03;4.081805800000000062e+01
1.075378905999999915e+03;4.080960799999999722e+01
1.074267577999999958e+03;4.080115099999999728e+01
1.073155273000000079e+03;3.399391200000000168e+01
1.072042969000000085e+03;3.398686200000000213e+01
1.070930663999999979e+03;4.304109199999999902e+01
1.069818359000000100e+03;3.850245699999999971e+01
1.068705077999999958e+03;3.396569800000000328e+01
1.067591797000000042e+03;4.527818700000000263e+01
1.066478515999999900e+03;4.753221099999999666e+01
1.065365234000000100e+03;2.941857900000000114e+01
1.064250976999999921e+03;2.714996000000000009e+01
1.063137694999999894e+03;4.524050900000000297e+01
1.062023437999999942e+03;3.618486399999999747e+01
1.060908202999999958e+03;3.617732199999999665e+01
1.059793944999999894e+03;3.843038899999999813e+01
1.058678711000000021e+03;4.068250700000000109e+01
1.057563476999999921e+03;3.615467799999999698e+01
1.056448241999999937e+03;4.292471299999999701e+01
1.055332030999999915e+03;3.613957200000000114e+01
1.054216797000000042e+03;4.064851800000000281e+01
1.053100586000000021e+03;4.289779300000000006e+01
1.051984375000000000e+03;3.611689400000000205e+01
1.050867187999999942e+03;3.385249699999999962e+01
1.049750976999999921e+03;2.933268500000000145e+01
1.048633788999999979e+03;4.511774799999999885e+01
1.047516601999999921e+03;4.285287100000000038e+01
1.046398437999999942e+03;4.960870400000000302e+01
1.045281250000000000e+03;4.508935499999999763e+01
1.044163086000000021e+03;2.930192600000000169e+01
1.043044922000000042e+03;4.281689099999999826e+01
1.041925780999999915e+03;4.731398399999999782e+01
1.040807616999999937e+03;5.406175199999999847e+01
1.039688476999999921e+03;5.630247500000000116e+01
1.038569336000000021e+03;5.178737300000000232e+01
1.037450194999999894e+03;5.852991899999999958e+01
1.036330077999999958e+03;5.176555599999999657e+01
1.035209961000000021e+03;5.175464199999999693e+01
1.034089844000000085e+03;6.974154699999999707e+01
1.032969726999999921e+03;6.297906900000000263e+01
1.031849609000000100e+03;7.420966300000000615e+01
1.030728515999999900e+03;7.644229099999999733e+01
1.029607422000000042e+03;7.867396499999999548e+01
1.028486327999999958e+03;6.966792300000000182e+01
1.027364258000000063e+03;6.965319100000000674e+01
1.026242187999999942e+03;8.311685900000000515e+01
1.025120116999999937e+03;8.309925800000000606e+01
1.023998047000000042e+03;8.308166500000000099e+01
1.022875977000000034e+03;8.081908400000000370e+01
1.021752929999999992e+03;8.753544599999999321e+01
1.020629882999999950e+03;8.527285799999999938e+01
1.019506836000000021e+03;9.647249600000000669e+01
1.018383788999999979e+03;9.196588099999999599e+01
1.017259766000000013e+03;9.643154099999999573e+01
1.016135742000000050e+03;1.121058730000000025e+02
1.015011718999999971e+03;1.098404010000000000e+02
1.013886718999999971e+03;1.142993770000000069e+02
1.012762695000000008e+03;1.030716249999999974e+02
1.011637695000000008e+03;1.008094789999999961e+02
1.010512695000000008e+03;1.187058789999999959e+02
1.009386718999999971e+03;1.276376190000000008e+02
1.008261718999999971e+03;1.432818760000000111e+02
1.007135742000000050e+03;1.186300049999999970e+02
1.006009766000000013e+03;1.365072940000000017e+02
1.004882813000000056e+03;1.566142879999999877e+02
1.003756836000000021e+03;1.610545960000000036e+02
1.002629882999999950e+03;1.587838130000000092e+02
1.001502929999999992e+03;1.632217100000000016e+02
1.000375000000000000e+03;1.810703129999999987e+02
9.992480470000000423e+02;1.720917660000000069e+02
9.981201170000000502e+02;1.653515170000000012e+02
9.969921880000000556e+02;1.653161320000000103e+02
9.958642579999999498e+02;1.809153900000000021e+02
9.947353520000000344e+02;2.099062350000000094e+02
9.936064450000000079e+02;2.522800139999999942e+02
9.924775389999999788e+02;2.678505549999999857e+02
9.913486329999999498e+02;2.410138090000000091e+02
9.902187500000000000e+02;2.945092159999999808e+02
9.890888670000000502e+02;2.966766660000000115e+02
9.879589839999999867e+02;3.278353880000000231e+02
9.868291020000000344e+02;3.500619199999999864e+02
9.856982420000000502e+02;3.611327509999999847e+02
9.845673829999999498e+02;3.699700619999999844e+02
9.834365229999999656e+02;3.921730650000000082e+02
9.823056639999999788e+02;4.255053409999999872e+02
9.811748049999999921e+02;4.365502619999999752e+02
9.800429689999999709e+02;3.986003420000000119e+02
9.789111329999999498e+02;4.096461790000000178e+02
9.777783200000000079e+02;3.761700440000000185e+02
9.766464839999999867e+02;4.339487920000000258e+02
9.755136720000000423e+02;4.182809139999999957e+02
9.743808589999999867e+02;4.248639529999999809e+02
9.732480470000000423e+02;3.891892399999999839e+02
9.721142579999999498e+02;3.690940860000000043e+02
9.709804689999999709e+02;4.357037050000000136e+02
9.698466799999999921e+02;4.422770689999999831e+02
9.687128910000000133e+02;4.488475339999999960e+02
9.675781250000000000e+02;4.198704829999999788e+02
9.664433589999999867e+02;4.419902339999999867e+02
9.653085939999999709e+02;4.729826659999999947e+02
9.641738279999999577e+02;4.928611149999999839e+02
9.630380860000000212e+02;4.328247989999999845e+02
9.619033200000000079e+02;4.593606570000000033e+02
9.607666020000000344e+02;4.703543700000000172e+02
9.596308589999999867e+02;4.990886229999999841e+02
9.584951170000000502e+02;4.790211790000000178e+02
9.573583979999999656e+02;5.121753539999999703e+02
9.562216799999999921e+02;5.009805910000000040e+02
9.550839839999999867e+02;4.897905880000000138e+02
9.539472660000000133e+02;5.229207149999999729e+02
9.528095700000000079e+02;5.449598999999999478e+02
9.516718750000000000e+02;5.293378300000000536e+02
9.505332029999999577e+02;4.849363399999999729e+02
9.493955079999999498e+02;5.844536130000000185e+02
9.482568360000000212e+02;5.666196290000000317e+02
9.471181639999999788e+02;5.222387700000000450e+02
9.459785160000000133e+02;5.265498659999999518e+02
9.448398439999999709e+02;5.463423460000000205e+02
9.437001950000000079e+02;5.705490720000000238e+02
9.425605470000000423e+02;5.770575559999999768e+02
9.414199220000000423e+02;5.703003539999999703e+02
9.402802729999999656e+02;6.320554809999999861e+02
9.391396479999999656e+02;5.457470090000000482e+02
9.379990229999999656e+02;5.478369139999999788e+02
9.368574220000000423e+02;5.852624510000000555e+02
9.357167970000000423e+02;5.696782230000000027e+02
9.345751950000000079e+02;5.607234499999999571e+02
9.334326170000000502e+02;5.252874759999999696e+02
9.322910160000000133e+02;4.810404659999999808e+02
9.311484380000000556e+02;4.147514949999999772e+02
9.300058589999999867e+02;4.036325380000000109e+02
9.288632810000000291e+02;3.263636169999999765e+02
9.277207029999999577e+02;2.777892759999999726e+02
9.265771479999999656e+02;2.446655269999999973e+02
9.254335939999999709e+02;1.961302799999999991e+02
9.242900389999999788e+02;1.520227360000000090e+02
9.231455079999999498e+02;1.652058869999999899e+02
9.220019529999999577e+02;1.365402530000000070e+02
9.208574220000000423e+02;1.497209780000000023e+02
9.197119139999999788e+02;1.254738619999999969e+02
9.185673829999999498e+02;1.144422610000000020e+02
9.174218750000000000e+02;1.100164719999999932e+02
9.162763670000000502e+02;9.459338400000000036e+01
9.151308589999999867e+02;1.209649509999999992e+02
9.139843750000000000e+02;1.121428449999999941e+02
9.128378910000000133e+02;1.209117739999999941e+02
9.116914060000000291e+02;1.033018799999999970e+02
9.105449220000000423e+02;1.164637299999999982e+02
9.093974610000000212e+02;8.568086200000000474e+01
9.082509770000000344e+02;9.664431000000000438e+01
9.071025389999999788e+02;9.662303199999999492e+01
9.059550779999999577e+02;9.440625000000000000e+01
9.048076170000000502e+02;1.141405409999999989e+02
9.036591799999999921e+02;1.119208600000000047e+02
9.025107420000000502e+02;1.118961869999999976e+02
9.013613279999999577e+02;9.432303600000000188e+01
9.002119139999999788e+02;1.074606780000000015e+02
8.990634770000000344e+02;9.647400700000000029e+01
8.979130860000000212e+02;9.864481399999999667e+01
8.967636720000000423e+02;1.030062790000000064e+02
8.956132810000000291e+02;8.764555400000000418e+01
8.944628910000000133e+02;1.117233889999999974e+02
8.933125000000000000e+02;8.541664900000000671e+01
8.921621089999999867e+02;9.634619899999999859e+01
8.910107420000000502e+02;8.975728599999999346e+01
8.898593750000000000e+02;8.754871400000000392e+01
8.887080079999999498e+02;8.971757499999999652e+01
8.875556639999999788e+02;9.407321199999999806e+01
8.864033200000000079e+02;1.071759720000000016e+02
8.852509770000000344e+02;1.158993609999999990e+02
8.840986329999999498e+02;8.963813000000000386e+01
8.829453130000000556e+02;9.398989100000000008e+01
8.817929689999999709e+02;8.741307799999999872e+01
8.806396479999999656e+02;8.957853699999999719e+01
8.794853520000000344e+02;8.082123599999999897e+01
8.783320310000000291e+02;7.643556200000000445e+01
8.771777339999999867e+02;8.951892899999999997e+01
8.760234380000000556e+02;9.604776800000000492e+01
8.748681639999999788e+02;9.602644300000000044e+01
8.737138670000000502e+02;8.509544400000000053e+01
8.725585939999999709e+02;9.380233800000000599e+01
8.714023439999999709e+02;8.941955600000000004e+01
8.702470700000000079e+02;8.285823800000000006e+01
8.690908200000000079e+02;8.065982099999999377e+01
8.679345700000000079e+02;8.935992400000000657e+01
8.667783200000000079e+02;9.369808999999999344e+01
8.656220700000000079e+02;9.149870300000000611e+01
8.644648439999999709e+02;7.623194100000000617e+01
8.633076170000000502e+02;7.839253999999999678e+01
8.621503910000000133e+02;7.837508400000000108e+01
8.609921880000000556e+02;7.835761999999999716e+01
8.598339839999999867e+02;9.139685099999999807e+01
8.586757810000000291e+02;8.267395799999999895e+01
8.575175779999999577e+02;8.700581400000000087e+01
8.563583979999999656e+02;7.828777300000000139e+01
8.551992189999999709e+02;7.392195900000000108e+01
8.540400389999999788e+02;7.173177300000000400e+01
8.528808589999999867e+02;7.388896900000000301e+01
8.517207029999999577e+02;6.735430900000000065e+01
8.505605470000000423e+02;8.471714799999999457e+01
8.494003910000000133e+02;7.601122300000000109e+01
8.482392579999999498e+02;6.513792399999999816e+01
8.470791020000000344e+02;6.946492000000000644e+01
8.459179689999999709e+02;7.161969000000000563e+01
8.447558589999999867e+02;6.292443800000000209e+01
8.435947270000000344e+02;5.857171999999999912e+01
8.424326170000000502e+02;6.723396300000000281e+01
8.412705079999999498e+02;7.372397599999999329e+01
8.401083979999999656e+02;7.587534300000000087e+01
8.389453130000000556e+02;7.152358999999999867e+01
8.377822270000000344e+02;8.884274299999999869e+01
8.366191410000000133e+02;7.799079100000000153e+01
8.354560549999999921e+02;8.013924400000000503e+01
8.342919920000000502e+02;7.795584100000000660e+01
8.331279299999999921e+02;7.577341499999999996e+01
8.319638670000000502e+02;7.575642399999999554e+01
8.307988279999999577e+02;8.223138400000000559e+01
8.296347660000000133e+02;7.572244299999999839e+01
8.284697270000000344e+02;6.921640800000000127e+01
8.273037110000000212e+02;7.568845399999999302e+01
8.261386720000000423e+02;7.350942200000000071e+01
8.249726560000000291e+02;9.510848199999999508e+01
8.238066410000000133e+02;8.428176100000000304e+01
8.226406250000000000e+02;9.722634100000000501e+01
8.214736329999999498e+02;9.288429299999999955e+01
8.203066410000000133e+02;7.342688800000000526e+01
8.191396479999999656e+02;7.772863800000000367e+01
8.179726560000000291e+02;7.771115899999999499e+01
8.168046880000000556e+02;7.553552200000000028e+01
8.156367189999999709e+02;7.983387000000000455e+01
8.144687500000000000e+02;8.628746800000000405e+01
8.132998049999999921e+02;8.842474400000000401e+01
8.121308589999999867e+02;8.409240699999999435e+01
8.109619139999999788e+02;9.485211900000000185e+01
8.097929689999999709e+02;8.620977800000000002e+01
8.086240229999999656e+02;6.679752299999999821e+01
8.074541020000000344e+02;7.755384100000000558e+01
8.062841799999999921e+02;7.322878300000000706e+01
8.051132810000000291e+02;7.321227299999999616e+01
8.039433589999999867e+02;6.243167900000000259e+01
8.027724610000000212e+02;6.456993099999999686e+01
8.016005860000000212e+02;7.101089500000000498e+01
8.004296880000000556e+02;5.808671600000000268e+01
7.992578130000000556e+02;6.667710099999999329e+01
7.980859380000000556e+02;7.096282999999999674e+01
7.969140630000000556e+02;5.804738600000000304e+01
7.957412110000000212e+02;6.448252899999999954e+01
7.945693360000000212e+02;5.372330099999999931e+01
7.933964839999999867e+02;6.445339199999999380e+01
7.922226560000000291e+02;6.229086699999999865e+01
7.910498049999999921e+02;6.871920799999999474e+01
7.898759770000000344e+02;5.796872299999999711e+01
7.887011720000000423e+02;6.224862300000000204e+01
7.875273439999999709e+02;4.935842900000000100e+01
7.863525389999999788e+02;5.149279800000000051e+01
7.851777339999999867e+02;5.362619000000000113e+01
7.840029299999999921e+02;4.503580500000000342e+01
7.828271479999999656e+02;5.145783999999999736e+01
7.816523439999999709e+02;5.787696100000000143e+01
7.804765630000000556e+02;6.000695799999999736e+01
7.792998049999999921e+02;5.356550200000000217e+01
7.781240229999999656e+02;5.355336400000000197e+01
7.769472660000000133e+02;5.354122900000000129e+01
7.757695310000000291e+02;3.639978399999999681e+01
7.745927729999999656e+02;4.923559999999999803e+01
7.734150389999999788e+02;5.350481800000000021e+01
7.722373049999999921e+02;5.135297400000000323e+01
7.710595700000000079e+02;6.845510099999999909e+01
7.698818360000000212e+02;5.346840999999999866e+01
7.687031250000000000e+02;3.635026899999999728e+01
7.675244139999999788e+02;5.771967300000000023e+01
7.663447270000000344e+02;5.129472700000000174e+01
7.651660160000000133e+02;5.555666699999999736e+01
7.639863279999999577e+02;4.486249899999999968e+01
7.628056639999999788e+02;4.698813200000000023e+01
7.616259770000000344e+02;4.057143800000000056e+01
7.604453130000000556e+02;5.550619100000000117e+01
7.592646479999999656e+02;5.335920300000000083e+01
7.580839839999999867e+02;4.694542299999999813e+01
7.569023439999999709e+02;4.906814599999999871e+01
7.557216799999999921e+02;3.199368499999999926e+01
7.545390630000000556e+02;4.478096800000000144e+01
7.533574220000000423e+02;5.116660300000000206e+01
7.521748049999999921e+02;4.049767700000000303e+01
7.509921880000000556e+02;5.114331399999999661e+01
7.498095700000000079e+02;4.474021100000000217e+01
7.486269529999999577e+02;5.325002700000000289e+01
7.474433589999999867e+02;4.684935000000000116e+01
7.462597660000000133e+02;5.322576899999999966e+01
7.450761720000000423e+02;4.044236800000000187e+01
7.438916020000000344e+02;4.468927000000000049e+01
7.427070310000000291e+02;4.255150600000000338e+01
7.415224610000000212e+02;4.466889599999999660e+01
7.403378910000000133e+02;5.316513100000000236e+01
7.391523439999999709e+02;4.890076400000000234e+01
7.379667970000000423e+02;4.888960999999999757e+01
7.367812500000000000e+02;3.400240300000000104e+01
7.355947270000000344e+02;5.099196599999999790e+01
7.344082029999999577e+02;5.522868700000000075e+01
7.332216799999999921e+02;3.822651700000000119e+01
7.320351560000000291e+02;4.458741799999999955e+01
7.308476560000000291e+02;4.033178699999999850e+01
7.296601560000000291e+02;4.032257500000000050e+01
7.284726560000000291e+02;4.455687300000000306e+01
7.272851560000000291e+02;5.303177600000000069e+01
7.260966799999999921e+02;5.089886899999999770e+01
7.249082029999999577e+02;4.240602899999999664e+01
7.237187500000000000e+02;3.391706800000000044e+01
7.225302729999999656e+02;4.450596999999999781e+01
7.213408200000000079e+02;4.025809900000000141e+01
7.201513670000000502e+02;5.507742700000000013e+01
7.189609380000000556e+02;5.506482299999999697e+01
7.177714839999999867e+02;4.234786600000000334e+01
7.165810549999999921e+02;4.445508199999999732e+01
7.153896479999999656e+02;3.386278500000000236e+01
7.141992189999999709e+02;3.808691000000000315e+01
7.130078130000000556e+02;4.654000899999999774e+01
7.118164060000000291e+02;5.498923099999999664e+01
7.106250000000000000e+02;3.594625899999999774e+01
7.094326170000000502e+02;5.285003700000000038e+01
7.082402339999999867e+02;4.861088900000000024e+01
7.070478520000000344e+02;4.226065100000000285e+01
7.058544920000000502e+02;4.647605899999999934e+01
7.046621089999999867e+02;5.702572299999999927e+01
7.034677729999999656e+02;5.490106600000000014e+01
7.022744139999999788e+02;5.277738200000000290e+01
7.010810549999999921e+02;5.065466299999999933e+01
6.998867189999999709e+02;4.220253399999999999e+01
6.986914060000000291e+02;5.485070400000000035e+01
6.974970700000000079e+02;4.851063899999999762e+01
6.963017579999999498e+02;5.693419999999999703e+01
6.951064450000000079e+02;5.902931999999999846e+01
6.939111329999999498e+02;4.636952999999999747e+01
6.927148439999999709e+02;5.268054599999999965e+01
6.915185549999999921e+02;6.320213300000000345e+01
6.903222660000000133e+02;6.108135999999999655e+01
6.891259770000000344e+02;6.527886200000000372e+01
6.879287110000000212e+02;5.263214500000000129e+01
6.867314450000000079e+02;6.524886300000000006e+01
6.855341799999999921e+02;6.523385600000000295e+01
6.843359380000000556e+02;6.101119200000000120e+01
6.831376950000000079e+02;5.048040799999999706e+01
6.819394529999999577e+02;7.149746700000000033e+01
6.807412110000000212e+02;6.937863199999999608e+01
6.795419920000000502e+02;7.777026399999999740e+01
6.783427729999999656e+02;6.934671000000000163e+01
6.771435549999999921e+02;9.244099400000000344e+01
6.759433589999999867e+02;7.771658299999999997e+01
6.747441410000000133e+02;7.979865300000000161e+01
6.735439450000000079e+02;9.027767900000000623e+01
6.723427729999999656e+02;8.186090099999999836e+01
6.711416020000000344e+02;7.344799000000000433e+01
6.699414060000000291e+02;1.028034899999999965e+02
6.687392579999999498e+02;8.809697699999999543e+01
6.675380860000000212e+02;1.006590580000000017e+02
6.663359380000000556e+02;7.128373000000000559e+01
6.651337889999999788e+02;9.851655599999999424e+01
6.639316410000000133e+02;7.963331599999999355e+01
6.627285160000000133e+02;7.751982099999999321e+01
6.615253910000000133e+02;8.169123799999999846e+01
6.603222660000000133e+02;8.167239399999999705e+01
6.591181639999999788e+02;8.793459300000000667e+01
6.579140630000000556e+02;8.582110600000000034e+01
6.567099610000000212e+02;8.161587500000000261e+01
6.555058589999999867e+02;1.067038119999999992e+02
6.543007810000000291e+02;7.948645000000000493e+01
6.530957029999999577e+02;7.319429800000000341e+01
6.518906250000000000e+02;8.781287399999999366e+01
6.506855470000000423e+02;7.943139600000000655e+01
6.494794920000000502e+02;7.105378000000000327e+01
6.482734380000000556e+02;8.148403199999999913e+01
6.470664060000000291e+02;6.475439500000000237e+01
6.458603520000000344e+02;8.771147899999999709e+01
6.446533200000000079e+02;7.307601200000000574e+01
6.434462889999999788e+02;7.932132699999999659e+01
6.422382810000000291e+02;9.182450900000000615e+01
6.410302729999999656e+02;8.345752000000000237e+01
6.398222660000000133e+02;7.509439799999999821e+01
6.386142579999999498e+02;6.464966599999999630e+01
6.374052729999999656e+02;6.880468799999999874e+01
6.361962889999999788e+02;9.380286399999999958e+01
6.349873049999999921e+02;7.502492499999999609e+01
6.337783200000000079e+02;6.875692700000000457e+01
6.325683589999999867e+02;8.957162499999999739e+01
6.313583979999999656e+02;7.497283199999999681e+01
6.301474610000000212e+02;7.703756699999999569e+01
6.289375000000000000e+02;6.661165599999999642e+01
6.277265630000000556e+02;9.781320999999999799e+01
6.265156250000000000e+02;8.738729899999999873e+01
6.253037110000000212e+02;8.736705800000000011e+01
6.240917970000000423e+02;7.486869000000000085e+01
6.228798829999999498e+02;9.564337899999999593e+01
6.216679689999999709e+02;9.146376800000000173e+01
6.204550779999999577e+02;1.122249599999999958e+02
6.192421880000000556e+02;9.765463300000000402e+01
6.180292970000000423e+02;1.017865450000000038e+02
6.168154299999999921e+02;9.968614200000000380e+01
6.156025389999999788e+02;9.135776500000000055e+01
6.143876950000000079e+02;8.926074199999999337e+01
6.131738279999999577e+02;8.093862900000000593e+01
6.119589839999999867e+02;8.714444699999999955e+01
6.107441410000000133e+02;9.127299499999999455e+01
6.095292970000000423e+02;7.466056799999999782e+01
6.083144529999999577e+02;8.293692799999999465e+01
6.070986329999999498e+02;6.840708200000000261e+01
6.058828130000000556e+02;8.289841499999999996e+01
6.046660160000000133e+02;7.459124799999999311e+01
6.034492189999999709e+02;6.421643100000000004e+01
6.022324220000000423e+02;6.420150800000000402e+01
6.010156250000000000e+02;6.418659200000000453e+01
5.997988279999999577e+02;7.245188899999999421e+01
5.985810549999999921e+02;7.036547899999999345e+01
5.973632810000000291e+02;7.034912099999999668e+01
5.961445310000000291e+02;6.826415299999999320e+01
5.949257810000000291e+02;6.204388800000000259e+01
5.937070310000000291e+02;6.202946099999999774e+01
5.924882810000000291e+02;6.408219900000000280e+01
5.912685549999999921e+02;5.373385600000000295e+01
5.900498049999999921e+02;5.578755999999999915e+01
5.888291020000000344e+02;5.990602899999999664e+01
5.876093750000000000e+02;5.782684299999999666e+01
5.863886720000000423e+02;6.607244099999999776e+01
5.851679689999999709e+02;6.192848999999999648e+01
5.839472660000000133e+02;5.985026899999999728e+01
5.827255860000000212e+02;4.951972200000000157e+01
5.815039060000000291e+02;6.601091800000000376e+01
5.802822270000000344e+02;5.774610100000000301e+01
5.790595700000000079e+02;7.216580999999999335e+01
5.778378910000000133e+02;5.359639700000000317e+01
5.766142579999999498e+02;5.976666600000000074e+01
5.753916020000000344e+02;5.975273899999999827e+01
5.741679689999999709e+02;6.797864500000000021e+01
5.729443360000000212e+02;7.208175699999999608e+01
5.717207029999999577e+02;8.235994700000000535e+01
5.704970700000000079e+02;8.028221899999999778e+01
5.692724610000000212e+02;7.203134199999999510e+01
5.680478520000000344e+02;6.789942899999999781e+01
5.668222660000000133e+02;8.434020999999999901e+01
5.655966799999999921e+02;6.786774400000000185e+01
5.643710939999999709e+02;8.635697899999999549e+01
5.631455079999999498e+02;7.811426500000000317e+01
5.619189450000000079e+02;9.659246799999999666e+01
5.606933589999999867e+02;9.656991600000000631e+01
5.594658200000000079e+02;1.109267650000000032e+02
5.582392579999999498e+02;9.652482600000000446e+01
5.570117189999999709e+02;9.650228099999999642e+01
5.557841799999999921e+02;1.190601039999999955e+02
5.545566410000000133e+02;1.313459780000000023e+02
5.533281250000000000e+02;1.497815089999999998e+02
5.520996089999999867e+02;1.928242649999999969e+02
5.508710939999999709e+02;1.743216250000000116e+02
5.496416020000000344e+02;2.091370540000000062e+02
5.484121089999999867e+02;2.152378080000000011e+02
5.471826170000000502e+02;2.459285580000000095e+02
5.459531250000000000e+02;2.888984990000000153e+02
5.447226560000000291e+02;3.072669369999999844e+02
5.434921880000000556e+02;3.420105290000000196e+02
5.422617189999999709e+02;3.705953369999999722e+02
5.410302729999999656e+02;3.971197510000000079e+02
5.397988279999999577e+02;4.072594910000000255e+02
5.385673829999999498e+02;4.787759699999999725e+02
5.373359380000000556e+02;4.357068790000000149e+02
5.361035160000000133e+02;5.624006960000000390e+02
5.348710939999999709e+02;6.195182499999999663e+02
5.336376950000000079e+02;6.684324339999999438e+02
5.324052729999999656e+02;7.602404790000000503e+02
5.311718750000000000e+02;8.438327030000000377e+02
5.299375000000000000e+02;9.886667479999999841e+02
5.287041020000000344e+02;1.223290649000000030e+03
5.274697270000000344e+02;1.533348876999999902e+03
5.262353520000000344e+02;2.212730469000000085e+03
5.250000000000000000e+02;3.406071777000000111e+03
5.237656250000000000e+02;5.410895507999999609e+03
5.225302729999999656e+02;1.063770996100000048e+04
5.212939450000000079e+02;2.139279101599999922e+04
5.200585939999999709e+02;3.242827148400000078e+04
5.188222660000000133e+02;2.912865820299999905e+04
5.175849610000000212e+02;1.652342578100000173e+04
5.163486329999999498e+02;8.257737305000000561e+03
5.151113279999999577e+02;4.426314452999999958e+03
5.138740229999999656e+02;2.851075194999999894e+03
5.126357420000000502e+02;1.834439941000000090e+03
5.113984379999999987e+02;1.449294799999999896e+03
5.101601559999999722e+02;1.068400513000000046e+03
5.089208980000000224e+02;8.524851680000000442e+02
5.076826169999999934e+02;7.709212649999999485e+02
5.064433589999999867e+02;5.429752809999999954e+02
5.052041019999999776e+02;4.899861450000000218e+02
5.039638669999999934e+02;3.801074219999999855e+02
5.027236330000000066e+02;3.475031740000000013e+02
5.014833980000000224e+02;3.230410769999999729e+02
5.002431639999999788e+02;2.721844790000000103e+02
4.990019530000000145e+02;2.619667360000000258e+02
4.977607419999999934e+02;2.273905179999999859e+02
4.965195309999999722e+02;2.029795230000000004e+02
4.952773440000000278e+02;2.110490570000000048e+02
4.940351559999999722e+02;1.765091400000000021e+02
4.927929690000000278e+02;1.622690729999999917e+02
4.915507809999999722e+02;1.602030179999999859e+02
4.903076169999999934e+02;1.601653290000000140e+02
4.890644530000000145e+02;1.418852540000000033e+02
4.878203129999999987e+02;1.479312130000000138e+02
4.865771480000000224e+02;1.418184660000000008e+02
4.853330080000000066e+02;1.357085720000000038e+02
4.840878910000000133e+02;1.113763349999999974e+02
4.828437500000000000e+02;1.234973980000000040e+02
4.815986330000000066e+02;1.133479609999999980e+02
4.803535160000000133e+02;9.915610499999999661e+01
4.791074219999999855e+02;1.112714459999999974e+02
4.778613280000000145e+02;1.071999509999999987e+02
4.766152339999999867e+02;1.112190169999999938e+02
4.753691410000000133e+02;9.097593700000000183e+01
4.741220700000000079e+02;9.297570000000000334e+01
4.728750000000000000e+02;7.880864699999999345e+01
4.716279299999999921e+02;1.030331570000000028e+02
4.703798830000000066e+02;7.069235999999999365e+01
4.691318360000000212e+02;8.077221699999999771e+01
4.678837889999999788e+02;7.873433699999999646e+01
4.666357419999999934e+02;6.862399299999999869e+01
4.653867190000000278e+02;7.869718899999999451e+01
4.641376950000000079e+02;6.657421899999999937e+01
4.628876950000000079e+02;6.050773199999999719e+01
4.616386719999999855e+02;8.065793600000000652e+01
4.603886719999999855e+02;6.047917199999999838e+01
4.591376950000000079e+02;6.651138299999999504e+01
4.578876950000000079e+02;4.433044799999999697e+01
4.566367190000000278e+02;4.834907199999999960e+01
4.553857419999999934e+02;7.250647700000000384e+01
4.541337889999999788e+02;7.651653299999999547e+01
4.528818360000000212e+02;7.649845100000000286e+01
4.516298830000000066e+02;8.251830300000000307e+01
4.503779299999999921e+02;1.026204610000000059e+02
4.491250000000000000e+02;9.253775000000000261e+01
4.478720700000000079e+02;1.045831680000000006e+02
4.466181639999999788e+02;1.065691759999999988e+02
4.453652339999999867e+02;9.649266099999999824e+01
4.441113280000000145e+02;1.065187839999999966e+02
4.428574219999999855e+02;1.165401540000000011e+02
4.416025389999999788e+02;1.024507140000000049e+02
4.403476559999999722e+02;1.084515609999999981e+02
4.390927730000000224e+02;1.164574510000000060e+02
4.378369139999999788e+02;1.284743650000000059e+02
4.365820309999999722e+02;1.324578250000000139e+02
4.353261719999999855e+02;1.444652250000000038e+02
4.340693360000000212e+02;1.464370120000000099e+02
4.328134769999999776e+02;1.423913119999999992e+02
4.315566410000000133e+02;1.383475190000000055e+02
4.302988280000000145e+02;1.603649289999999894e+02
4.290419919999999934e+02;1.382819819999999993e+02
4.277841799999999921e+02;1.462636569999999949e+02
4.265253910000000133e+02;1.522384030000000052e+02
4.252675780000000145e+02;1.181570660000000004e+02
4.240087889999999788e+02;1.381509399999999914e+02
4.227500000000000000e+02;1.140976260000000053e+02
4.214912110000000212e+02;1.420879060000000038e+02
4.202314450000000079e+02;1.240473400000000055e+02
4.189716799999999921e+02;1.160167619999999999e+02
4.177109379999999987e+02;1.099897919999999942e+02
4.164511719999999855e+02;1.419531399999999906e+02
4.151904299999999921e+02;1.079387360000000058e+02
4.139287110000000212e+02;1.378889920000000018e+02
4.126679690000000278e+02;1.138812559999999934e+02
4.114062500000000000e+02;1.118567809999999980e+02
4.101445309999999722e+02;1.198180919999999929e+02
4.088818360000000212e+02;1.098071670000000069e+02
4.076191410000000133e+02;1.317373049999999921e+02
4.063564450000000079e+02;1.197327420000000018e+02
4.050937500000000000e+02;1.097289350000000070e+02
4.038300780000000145e+02;1.356326290000000085e+02
4.025664059999999722e+02;1.276239010000000036e+02
4.013027339999999867e+02;1.196189729999999969e+02
4.000380860000000212e+02;1.195905300000000011e+02
3.987734379999999987e+02;1.215548019999999951e+02
3.975087889999999788e+02;1.235181199999999961e+02
3.962431639999999788e+02;1.234887470000000036e+02
3.949775389999999788e+02;1.294332119999999975e+02
3.937119139999999788e+02;1.333840329999999881e+02
3.924462889999999788e+02;1.273812939999999969e+02
3.911796879999999987e+02;1.213814090000000050e+02
3.899130860000000212e+02;1.352782139999999913e+02
3.886455080000000066e+02;1.392238309999999899e+02
3.873789059999999722e+02;1.391906889999999919e+02
3.861113280000000145e+02;1.212658540000000045e+02
3.848427730000000224e+02;1.570118260000000134e+02
3.835751950000000079e+02;1.569744110000000035e+02
3.823066410000000133e+02;1.330984799999999950e+02
3.810371089999999867e+02;1.310807039999999972e+02
3.797685549999999921e+02;1.310494689999999878e+02
3.784990230000000224e+02;1.449140930000000083e+02
3.772294919999999934e+02;1.389255980000000079e+02
3.759589839999999867e+02;1.408766479999999888e+02
3.746884769999999776e+02;1.626638179999999920e+02
3.734179690000000278e+02;1.427926940000000116e+02
3.721474610000000212e+02;1.487069089999999960e+02
3.708759769999999776e+02;1.387600099999999941e+02
3.696044919999999934e+02;1.565632019999999898e+02
3.683320309999999722e+02;1.545445100000000025e+02
3.670605469999999855e+02;1.525267489999999952e+02
3.657880860000000212e+02;1.742746730000000071e+02
3.645146480000000224e+02;1.504739989999999921e+02
3.632421879999999987e+02;1.662736510000000010e+02
3.619687500000000000e+02;1.602970119999999952e+02
3.606943360000000212e+02;1.760867309999999861e+02
3.594208980000000224e+02;1.621984559999999931e+02
3.581464839999999867e+02;1.582045750000000055e+02
3.568720700000000079e+02;1.482813419999999951e+02
3.555966799999999921e+02;1.660354000000000099e+02
3.543212889999999788e+02;1.739002690000000086e+02
3.530458980000000224e+02;1.659560089999999946e+02
3.517705080000000066e+02;1.639411320000000103e+02
3.504941410000000133e+02;1.678513639999999896e+02
3.492177730000000224e+02;1.934764399999999966e+02
3.479414059999999722e+02;1.855350339999999960e+02
3.466640629999999987e+02;1.716775049999999965e+02
3.453867190000000278e+02;1.617722469999999930e+02
3.441093750000000000e+02;1.715953220000000101e+02
3.428310549999999921e+02;1.853574370000000044e+02
3.415527339999999867e+02;1.833416290000000117e+02
3.402744139999999788e+02;1.773848879999999895e+02
3.389951169999999934e+02;1.911356810000000053e+02
3.377158200000000079e+02;1.753298949999999934e+02
3.364365230000000224e+02;1.733183439999999962e+02
3.351572269999999776e+02;2.047816770000000020e+02
3.338769530000000145e+02;1.948896790000000010e+02
3.325966799999999921e+02;2.027153930000000059e+02
3.313154299999999921e+02;2.223431549999999959e+02
3.300341799999999921e+02;2.006509859999999890e+02
3.287529299999999921e+02;2.261698910000000069e+02
3.274716799999999921e+02;2.339805149999999969e+02
3.261894530000000145e+02;2.476846160000000054e+02
3.249072269999999776e+02;2.397640379999999993e+02
3.236250000000000000e+02;2.868618470000000116e+02
3.223417969999999855e+02;2.298272399999999891e+02
3.210585940000000278e+02;2.611938779999999838e+02
3.197753910000000133e+02;2.886186220000000162e+02
3.184912110000000212e+02;2.571425479999999766e+02
3.172070309999999722e+02;2.943672789999999964e+02
3.159228519999999776e+02;3.374600219999999808e+02
3.146386719999999855e+02;3.511094669999999951e+02
3.133535160000000133e+02;3.137654109999999719e+02
3.120673830000000066e+02;3.391772460000000251e+02
3.107822269999999776e+02;3.802575990000000274e+02
3.094960940000000278e+02;3.821257320000000277e+02
3.082099610000000212e+02;4.349307860000000119e+02
3.069238280000000145e+02;4.681236269999999990e+02
3.056367190000000278e+02;5.013004460000000222e+02
3.043496089999999867e+02;5.501231080000000020e+02
3.030615230000000224e+02;5.910931399999999485e+02
3.017744139999999788e+02;6.026915279999999484e+02
3.004853519999999776e+02;6.181968990000000304e+02
2.991972660000000133e+02;5.789310299999999643e+02
2.979082030000000145e+02;4.634243159999999762e+02
2.966191410000000133e+02;4.457184750000000122e+02
2.953300780000000145e+02;3.713425290000000132e+02
2.940400389999999788e+02;3.263118590000000268e+02
2.927500000000000000e+02;3.262331540000000132e+02
2.914599610000000212e+02;2.929531250000000000e+02
2.901699219999999855e+02;2.596891170000000102e+02
2.888789059999999722e+02;2.557223050000000057e+02
2.875869139999999788e+02;2.283380889999999965e+02
2.862958980000000224e+02;2.399897919999999942e+02
2.850039059999999722e+02;2.399318539999999871e+02
2.837119139999999788e+02;2.379237210000000005e+02
2.824189450000000079e+02;2.222684779999999876e+02
2.811269530000000145e+02;2.085700229999999920e+02
2.798330080000000066e+02;2.241098790000000065e+02
2.785400389999999788e+02;1.987276919999999905e+02
2.772460940000000278e+02;1.986796569999999917e+02
2.759521480000000224e+02;1.927895200000000102e+02
2.746582030000000145e+02;1.791146239999999921e+02
2.733632809999999722e+02;2.141069950000000119e+02
2.720683589999999867e+02;1.809739529999999945e+02
2.707724610000000212e+02;2.081669620000000123e+02
2.694775389999999788e+02;2.003365330000000029e+02
2.681816410000000133e+02;1.886207730000000140e+02
2.668847660000000133e+02;1.730225220000000093e+02
2.655888669999999934e+02;1.652062229999999943e+02
2.642919919999999934e+02;1.573936919999999873e+02
2.629941410000000133e+02;1.767821659999999895e+02
2.616972660000000133e+02;1.553752440000000092e+02
2.603994139999999788e+02;1.456289979999999957e+02
2.591005860000000212e+02;1.455937040000000025e+02
2.578027339999999867e+02;1.630254060000000038e+02
2.565039059999999722e+02;1.435827940000000069e+02
2.552050779999999861e+02;1.648861850000000118e+02
2.539052729999999940e+02;1.609674530000000061e+02
2.526054689999999994e+02;1.318449549999999988e+02
2.513056640000000073e+02;1.667046200000000056e+02
2.500048830000000066e+02;1.414707339999999931e+02
2.487041020000000060e+02;1.472488400000000013e+02
2.474033200000000079e+02;1.530241389999999910e+02
2.461025390000000073e+02;1.374946140000000128e+02
2.448007810000000006e+02;1.432694400000000030e+02
2.434990229999999940e+02;1.548482360000000142e+02
2.421962890000000073e+02;1.567457430000000045e+02
2.408935549999999921e+02;1.218837130000000002e+02
2.395908200000000079e+02;1.373276060000000030e+02
2.382880859999999927e+02;1.295593259999999987e+02
2.369843750000000000e+02;1.295278169999999989e+02
2.356806640000000073e+02;1.333618620000000021e+02
2.343759770000000060e+02;1.217355419999999953e+02
2.330722660000000133e+02;1.217059100000000029e+02
2.317675779999999861e+02;1.236076510000000042e+02
2.304619140000000073e+02;1.313011469999999861e+02
2.291562500000000000e+02;1.042431639999999931e+02
2.278505859999999927e+02;1.119375990000000058e+02
2.265449220000000139e+02;1.331346890000000087e+02
2.252382810000000006e+02;1.234571530000000052e+02
2.239316410000000133e+02;1.214985049999999944e+02
2.226250000000000000e+02;9.833195499999999356e+01
2.213173830000000066e+02;7.710428600000000188e+01
2.200097660000000133e+02;7.130406999999999584e+01
2.187021479999999940e+02;9.633333600000000274e+01
2.173935549999999921e+02;7.512166600000000471e+01
2.160849609999999927e+02;8.665768400000000327e+01
2.147763669999999934e+02;7.123447400000000584e+01
2.134667970000000139e+02;7.506664999999999566e+01
2.121572270000000060e+02;6.350241499999999917e+01
2.108476560000000006e+02;7.695381899999999575e+01
2.095371089999999867e+02;7.885838300000000345e+01
2.082265629999999987e+02;7.114748400000000572e+01
2.069160160000000133e+02;7.305252799999999525e+01
2.056044919999999934e+02;6.919072699999999543e+01
2.042929689999999994e+02;6.148782299999999879e+01
2.029814450000000079e+02;5.763072999999999979e+01
2.016689450000000079e+02;5.761662700000000115e+01
2.003564450000000079e+02;7.872344200000000569e+01
1.990439450000000079e+02;7.102571100000000115e+01
1.977314450000000079e+02;6.908917200000000491e+01
1.964179689999999994e+02;5.372285800000000222e+01
1.951035160000000133e+02;8.440094799999999964e+01
1.937900390000000073e+02;6.136746200000000329e+01
1.924755859999999927e+02;6.710420999999999481e+01
1.911611330000000066e+02;4.983661699999999684e+01
1.898457029999999861e+02;4.215910300000000177e+01
1.885302729999999940e+02;5.555972700000000231e+01
1.872148439999999994e+02;5.171532799999999952e+01
1.858984379999999987e+02;5.170263299999999873e+01
1.845820310000000006e+02;5.743326600000000326e+01
1.832656250000000000e+02;4.784929999999999950e+01
1.819492189999999994e+02;6.123205899999999957e+01
1.806318359999999927e+02;4.399972900000000209e+01
1.793144529999999861e+02;4.972660100000000227e+01
1.779960939999999994e+02;5.353855899999999934e+01
1.766777339999999867e+02;5.926026199999999733e+01
1.753593750000000000e+02;4.586762600000000134e+01
1.740400390000000073e+02;6.114179200000000236e+01
1.727207029999999861e+02;4.775526800000000094e+01
1.714013669999999934e+02;5.347273599999999760e+01
1.700820310000000006e+02;6.300592400000000026e+01
1.687617189999999994e+02;5.535520600000000258e+01
1.674414060000000006e+02;5.343324299999999738e+01
1.661201169999999934e+02;6.295937700000000348e+01
1.647988279999999861e+02;5.340691000000000344e+01
1.634775390000000073e+02;6.102142299999999864e+01
1.621552729999999940e+02;4.384833100000000172e+01
1.608330080000000066e+02;5.717937100000000328e+01
1.595107419999999934e+02;5.144873799999999875e+01
1.581884770000000060e+02;5.334107999999999805e+01
1.568652339999999867e+02;5.713705099999999959e+01
1.555419919999999934e+02;6.283523600000000187e+01
1.542177729999999940e+02;4.378343999999999880e+01
1.528935549999999921e+02;5.709472699999999890e+01
1.515693359999999927e+02;6.088598999999999961e+01
1.502441410000000133e+02;7.038202699999999368e+01
1.489189450000000079e+02;6.465938599999999781e+01
1.475937500000000000e+02;7.034722100000000466e+01
1.462685549999999921e+02;6.842901600000000428e+01
1.449423830000000066e+02;5.701007100000000349e+01
1.436152339999999867e+02;5.889582399999999751e+01
1.422890629999999987e+02;6.268003499999999661e+01
1.409619140000000073e+02;4.937203999999999837e+01
1.396347660000000133e+02;4.935981000000000307e+01
1.383066410000000133e+02;5.314354699999999809e+01
1.369785160000000133e+02;6.261794299999999680e+01
1.356503910000000133e+02;6.449945800000000418e+01
1.343212890000000073e+02;7.017318699999999865e+01
1.329921879999999987e+02;5.688306399999999741e+01
1.316630859999999927e+02;5.118205300000000335e+01
1.303339839999999867e+02;7.391128500000000656e+01
1.290039060000000006e+02;5.305133800000000122e+01
1.276728520000000060e+02;6.250926199999999966e+01
1.263427729999999940e+02;5.302498599999999840e+01
1.250117189999999994e+02;6.247820699999999761e+01
1.236796879999999987e+02;5.867706299999999686e+01
1.223486330000000066e+02;6.623182699999999556e+01
1.210166020000000060e+02;6.243161800000000028e+01
1.196835939999999994e+02;5.485050199999999876e+01
1.183515629999999987e+02;5.483685299999999785e+01
1.170185550000000063e+02;6.238502499999999884e+01
1.156845699999999937e+02;6.614946000000000481e+01
1.143515629999999987e+02;6.046444300000000283e+01
1.130175780000000003e+02;5.100416599999999789e+01
1.116826169999999934e+02;4.532573699999999661e+01
1.103486330000000066e+02;4.720254099999999653e+01
1.090136719999999997e+02;5.474129500000000093e+01
1.076777340000000009e+02;6.227627900000000238e+01
1.063417969999999997e+02;5.848736600000000152e+01
1.050058590000000009e+02;4.338302199999999686e+01
1.036699219999999997e+02;3.394345500000000015e+01
1.023330080000000066e+02;1.696748900000000049e+01
1.009960939999999994e+02;1.319363899999999923e+01
9.965918000000000632e+01;1.319034199999999935e+01
9.832128899999999305e+01;1.318704499999999946e+01
9.698339799999999400e+01;7.533570000000000100e+00
9.564453100000000063e+01;1.882921999999999985e+00
9.430566399999999305e+01;0.000000000000000000e+00
9.296679699999999968e+01;3.763958999999999833e+00
9.162793000000000632e+01;1.881507999999999958e+00
9.028808600000000695e+01;1.881037000000000070e+00
8.894824199999999337e+01;0.000000000000000000e+00
8.760742199999999968e+01;0.000000000000000000e+00
8.626660200000000600e+01;-1.879623999999999961e+00
8.492578100000000063e+01;0.000000000000000000e+00
8.358496100000000695e+01;-1.878681000000000045e+00
8.224316399999999305e+01;-1.878209999999999935e+00
8.090039099999999905e+01;0.000000000000000000e+00
7.955859399999999937e+01;0.000000000000000000e+00
7.821581999999999368e+01;5.630385999999999669e+00
7.687304699999999968e+01;3.752648000000000206e+00
7.552929699999999968e+01;-3.751704999999999846e+00
7.418554699999999968e+01;-3.750761999999999929e+00
7.284179699999999968e+01;3.749819000000000013e+00
7.149706999999999368e+01;1.874438000000000049e+00
7.015234399999999937e+01;1.873966000000000021e+00
6.880761699999999337e+01;-1.873494999999999910e+00
6.746191399999999305e+01;-3.746046000000000209e+00
6.611621100000000695e+01;5.617652999999999786e+00
6.477050800000000663e+01;1.872079000000000049e+00
6.342382800000000032e+01;3.743215000000000181e+00
6.207714800000000110e+01;5.613406999999999591e+00
6.072949200000000047e+01;3.741328000000000209e+00
5.938183599999999984e+01;7.480768000000000306e+00
5.803417999999999921e+01;1.869720000000000049e+00
5.668652300000000110e+01;1.869248000000000021e+00
5.533789099999999905e+01;0.000000000000000000e+00
5.398925799999999953e+01;5.604911000000000421e+00
5.263964800000000110e+01;-1.867831999999999937e+00
5.129003900000000016e+01;3.734719000000000122e+00
4.994042999999999921e+01;0.000000000000000000e+00
4.859082000000000079e+01;-1.866414999999999935e+00
4.724023400000000095e+01;-3.731885999999999814e+00
4.588867199999999968e+01;3.730941000000000063e+00
4.453808599999999984e+01;1.864997999999999934e+00
4.318652300000000110e+01;-1.864525999999999906e+00
4.183398400000000095e+01;1.864052999999999960e+00
4.048242199999999968e+01;7.454322999999999588e+00
3.912988299999999953e+01;0.000000000000000000e+00
3.777636700000000047e+01;3.725271000000000221e+00
3.642285199999999890e+01;-1.862163000000000013e+00
3.506933599999999984e+01;0.000000000000000000e+00
3.371582000000000079e+01;3.722434999999999938e+00
3.236132800000000032e+01;3.721490000000000187e+00
3.100683599999999984e+01;1.860271999999999926e+00
2.965136700000000047e+01;1.859798999999999980e+00
2.829687500000000000e+01;1.859326000000000034e+00
2.694042999999999921e+01;0.000000000000000000e+00
2.558496099999999984e+01;3.716760999999999981e+00
2.422851599999999905e+01;5.573720999999999925e+00
2.287207000000000079e+01;1.300203899999999990e+01
2.151464800000000110e+01;3.713922000000000168e+00
2.015722699999999890e+01;3.712975999999999832e+00
1.879980499999999921e+01;5.568043000000000298e+00
1.744140600000000063e+01;3.711082000000000214e+00
1.608300799999999953e+01;1.669560999999999851e+01
1.472460899999999917e+01;9.272971000000000075e+00
1.336523399999999917e+01;1.297884600000000077e+01
1.200585899999999917e+01;1.112188300000000041e+01
1.064550799999999953e+01;1.111904200000000031e+01
9.285156000000000631e+00;1.852700000000000102e+01
7.924805000000000099e+00;3.148784799999999962e+01
6.564453000000000316e+00;4.259030899999999775e+01
5.203125000000000000e+00;4.628197099999999864e+01
3.841797000000000128e+00;7.773381000000000540e+01
2.479492000000000029e+00;1.646794590000000085e+02
1.117188000000000070e+00;4.791129760000000033e+02
-2.451170000000000015e-01;1.006064331000000038e+03
-1.608397999999999994e+00;1.338609985000000052e+03
-2.971680000000000099e+00;1.242148071000000073e+03
-4.334960999999999842e+00;8.944128419999999551e+02
-5.699219000000000257e+00;3.011402590000000146e+02
-7.063476999999999784e+00;7.757449300000000392e+01
-8.428710999999999842e+00;5.170304900000000004e+01
-9.793945000000000789e+00;3.322913400000000195e+01
-1.115917999999999921e+01;2.399264900000000011e+01
-1.252441400000000016e+01;1.291579699999999953e+01
-1.389062500000000000e+01;1.291247500000000059e+01
-1.525683599999999984e+01;1.475331599999999987e+01
-1.662402300000000110e+01;1.843689699999999831e+01
-1.799121099999999984e+01;1.290250400000000042e+01
-1.935839800000000110e+01;5.528220000000000134e+00
-2.072656299999999874e+01;5.526794999999999902e+00
-2.209472699999999890e+01;3.683580000000000076e+00
-2.346386700000000047e+01;5.523944000000000187e+00
-2.483203100000000063e+01;5.522518999999999956e+00
-2.620214800000000110e+01;3.680728999999999917e+00
-2.757128900000000016e+01;-1.839889000000000108e+00
-2.894140600000000063e+01;1.839414000000000105e+00
-3.031152300000000110e+01;3.677875999999999923e+00
-3.168261700000000047e+01;3.676925000000000221e+00
-3.305371099999999984e+01;1.837987000000000037e+00
-3.442480499999999921e+01;0.000000000000000000e+00
-3.579687500000000000e+01;3.674071000000000087e+00
-3.716894500000000079e+01;-1.836559999999999970e+00
-3.854101599999999905e+01;-3.672168000000000099e+00
-3.991406299999999874e+01;1.835607999999999906e+00
-4.128710900000000095e+01;3.670263999999999971e+00
-4.266113299999999953e+01;1.834656000000000065e+00
-4.403515600000000063e+01;1.834179999999999922e+00
-4.540917999999999921e+01;0.000000000000000000e+00
-4.678417999999999921e+01;-3.666453999999999880e+00
-4.815917999999999921e+01;-1.832751000000000019e+00
-4.953417999999999921e+01;1.832273999999999958e+00
-5.091015600000000063e+01;3.663594999999999935e+00
-5.228613299999999953e+01;-1.831320999999999977e+00
-5.366210900000000095e+01;-1.830843999999999916e+00
-5.503906299999999874e+01;3.660734999999999850e+00
-5.641601599999999905e+01;0.000000000000000000e+00
-5.779394500000000079e+01;0.000000000000000000e+00
-5.917187500000000000e+01;3.657872999999999930e+00
-6.054980499999999921e+01;0.000000000000000000e+00
-6.192871099999999984e+01;-3.655965000000000131e+00
-6.330761700000000047e+01;0.000000000000000000e+00
-6.468652299999999400e+01;5.481082999999999927e+00
-6.606640600000000063e+01;1.826549999999999896e+00
-6.744628899999999305e+01;0.000000000000000000e+00
-6.882617199999999968e+01;0.000000000000000000e+00
-7.020703100000000063e+01;1.825117000000000100e+00
-7.158789099999999905e+01;0.000000000000000000e+00
-7.296972700000000600e+01;1.824162000000000061e+00
-7.435156299999999874e+01;3.647368000000000166e+00
-7.573339799999999400e+01;1.823206000000000104e+00
-7.711621100000000695e+01;1.822727999999999904e+00
-7.849902299999999400e+01;1.822249999999999925e+00
-7.988281299999999874e+01;1.821771000000000029e+00
-8.126660200000000600e+01;5.463879000000000374e+00
-8.265039099999999905e+01;1.820813999999999933e+00
-8.403418000000000632e+01;1.820335999999999954e+00
-8.541894499999999368e+01;1.819857000000000058e+00
-8.680468799999999874e+01;1.819377999999999940e+00
-8.818945300000000032e+01;0.000000000000000000e+00
-8.957519499999999368e+01;5.455262000000000278e+00
-9.096191399999999305e+01;1.817941999999999947e+00
-9.234863300000000663e+01;3.634924999999999962e+00
-9.373535200000000600e+01;1.816983000000000015e+00
-9.512206999999999368e+01;0.000000000000000000e+00
-9.650976599999999905e+01;1.816025000000000000e+00
-9.789843799999999874e+01;1.815544999999999964e+00
-9.928613300000000663e+01;0.000000000000000000e+00
-1.006757810000000006e+02;3.629172000000000065e+00
-1.020644530000000003e+02;1.814105999999999996e+00
-1.034541020000000060e+02;3.627253000000000061e+00
-1.048437500000000000e+02;0.000000000000000000e+00
-1.062343750000000000e+02;3.625332999999999917e+00
-1.076250000000000000e+02;3.624372000000000149e+00
-1.090156250000000000e+02;0.000000000000000000e+00
-1.104072270000000060e+02;1.811226000000000003e+00
-1.117988280000000003e+02;-1.810745000000000049e+00
-1.131904300000000063e+02;0.000000000000000000e+00
-1.145830080000000066e+02;1.809784000000000059e+00
-1.159755860000000069e+02;0.000000000000000000e+00
-1.173691409999999991e+02;5.426465999999999568e+00
-1.187626949999999937e+02;-1.808340999999999976e+00
-1.201562500000000000e+02;3.615720000000000045e+00
-1.215507810000000006e+02;0.000000000000000000e+00
-1.229453129999999987e+02;1.806897999999999893e+00
-1.243408199999999937e+02;0.000000000000000000e+00
-1.257353520000000060e+02;1.805935000000000068e+00
-1.271318360000000069e+02;1.805452999999999975e+00
-1.285273439999999994e+02;1.804971000000000103e+00
-1.299238279999999861e+02;1.804489999999999927e+00
-1.313212890000000073e+02;-3.608016000000000112e+00
-1.327187500000000000e+02;5.410576999999999970e+00
-1.341162109999999927e+02;1.803044000000000091e+00
-1.355136720000000139e+02;0.000000000000000000e+00
-1.369121089999999867e+02;5.406236999999999959e+00
-1.383115229999999940e+02;5.404789000000000065e+00
-1.397099609999999927e+02;1.801114000000000104e+00
-1.411093750000000000e+02;-1.800631000000000093e+00
-1.425097660000000133e+02;0.000000000000000000e+00
-1.439101560000000006e+02;-1.799665999999999988e+00
-1.453105470000000139e+02;5.397547999999999568e+00
-1.467119140000000073e+02;0.000000000000000000e+00
-1.481132810000000006e+02;1.798216000000000037e+00
-1.495146479999999940e+02;0.000000000000000000e+00
-1.509169919999999934e+02;0.000000000000000000e+00
-1.523193359999999927e+02;0.000000000000000000e+00
-1.537226560000000006e+02;0.000000000000000000e+00
