   4.5000     1220
   4.5150     1195
   4.5300     1259
   4.5450     1179
   4.5600     1181
   4.5750     1249
   4.5900     1178
   4.6050     1210
   4.6200     1256
   4.6350     1263
   4.6500     1190
   4.6650     1239
   4.6800     1179
   4.6950     1204
   4.7100     1223
   4.7250     1191
   4.7400     1221
   4.7550     1259
   4.7700     1233
   4.7850     1226
   4.8000     1230
   4.8150     1281
   4.8300     1199
   4.8450     1285
   4.8600     1289
   4.8750     1290
   4.8900     1315
   4.9050     1284
   4.9200     1281
   4.9350     1290
   4.9500     1288
   4.9650     1306
   4.9800     1326
   4.9950     1329
   5.0100     1306
   5.0250     1315
   5.0400     1338
   5.0550     1320
   5.0700     1313
   5.0850     1299
   5.1000     1364
   5.1150     1339
   5.1300     1374
   5.1450     1352
   5.1600     1355
   5.1750     1350
   5.1900     1364
   5.2050     1410
   5.2200     1417
   5.2350     1396
   5.2500     1403
   5.2650     1403
   5.2800     1418
   5.2950     1447
   5.3100     1484
   5.3250     1466
   5.3400     1475
   5.3550     1381
   5.3700     1459
   5.3850     1447
   5.4000     1515
   5.4150     1504
   5.4300     1458
   5.4450     1501
   5.4600     1532
   5.4750     1449
   5.4900     1489
   5.5050     1615
   5.5200     1583
   5.5350     1548
   5.5500     1553
   5.5650     1585
   5.5800     1535
   5.5950     1571
   5.6100     1594
   5.6250     1619
   5.6400     1649
   5.6550     1605
   5.6700     1655
   5.6850     1635
   5.7000     1616
   5.7150     1653
   5.7300     1669
   5.7450     1665
   5.7600     1711
   5.7750     1708
   5.7900     1755
   5.8050     1729
   5.8200     1760
   5.8350     1713
   5.8500     1838
   5.8650     1835
   5.8800     1785
   5.8950     1878
   5.9100     1927
   5.9250     1921
   5.9400     1977
   5.9550     1948
   5.9700     2046
   5.9850     1987
   6.0000     1962
   6.0150     1968
   6.0300     2007
   6.0450     2049
   6.0600     2073
   6.0750     2130
   6.0900     2104
   6.1050     2137
   6.1200     2247
   6.1350     2273
   6.1500     2298
   6.1650     2335
   6.1800     2285
   6.1950     2315
   6.2100     2300
   6.2250     2402
   6.2400     2414
   6.2550     2464
   6.2700     2493
   6.2850     2535
   6.3000     2550
   6.3150     2570
   6.3300     2632
   6.3450     2682
   6.3600     2653
   6.3750     2673
   6.3900     2675
   6.4050     2716
   6.4200     2853
   6.4350     2911
   6.4500     2930
   6.4650     2986
   6.4800     2990
   6.4950     3041
   6.5100     3096
   6.5250     3176
   6.5400     3169
   6.5550     3280
   6.5700     3284
   6.5850     3358
   6.6000     3390
   6.6150     3501
   6.6300     3493
   6.6450     3601
   6.6600     3546
   6.6750     3727
   6.6900     3759
   6.7050     3804
   6.7200     3941
   6.7350     3954
   6.7500     4027
   6.7650     4129
   6.7800     4166
   6.7950     4284
   6.8100     4451
   6.8250     4471
   6.8400     4531
   6.8550     4633
   6.8700     4802
   6.8850     4983
   6.9000     5034
   6.9150     5113
   6.9300     5212
   6.9450     5319
   6.9600     5453
   6.9750     5642
   6.9900     5799
   7.0050     5733
   7.0200     5917
   7.0350     6133
   7.0500     6296
   7.0650     6419
   7.0800     6546
   7.0950     6723
   7.1100     6786
   7.1250     6934
   7.1400     7008
   7.1550     7004
   7.1700     6955
   7.1850     6823
   7.2000     6891
   7.2150     6737
   7.2300     6574
   7.2450     6420
   7.2600     6237
   7.2750     6072
   7.2900     5878
   7.3050     5620
   7.3200     5509
   7.3350     5288
   7.3500     5075
   7.3650     4982
   7.3800     4889
   7.3950     4776
   7.4100     4627
   7.4250     4504
   7.4400     4381
   7.4550     4299
   7.4700     4193
   7.4850     4150
   7.5000     4117
   7.5150     4071
   7.5300     3930
   7.5450     3939
   7.5600     3877
   7.5750     3773
   7.5900     3681
   7.6050     3711
   7.6200     3594
   7.6350     3586
   7.6500     3452
   7.6650     3411
   7.6800     3227
   7.6950     3274
   7.7100     3267
   7.7250     3094
   7.7400     3005
   7.7550     2875
   7.7700     2857
   7.7850     2726
   7.8000     2615
   7.8150     2558
   7.8300     2518
   7.8450     2450
   7.8600     2357
   7.8750     2218
   7.8900     2107
   7.9050     2091
   7.9200     1972
   7.9350     1962
   7.9500     1930
   7.9650     1926
   7.9800     1920
   7.9950     1912
   8.0100     1779
   8.0250     1744
   8.0400     1683
   8.0550     1680
   8.0700     1680
   8.0850     1597
   8.1000     1595
   8.1150     1557
   8.1300     1534
   8.1450     1480
   8.1600     1441
   8.1750     1469
   8.1900     1476
   8.2050     1558
   8.2200     1487
   8.2350     1379
   8.2500     1363
   8.2650     1400
   8.2800     1451
   8.2950     1414
   8.3100     1330
   8.3250     1315
   8.3400     1327
   8.3550     1328
   8.3700     1307
   8.3850     1310
   8.4000     1276
   8.4150     1254
   8.4300     1265
   8.4450     1211
   8.4600     1292
   8.4750     1272
   8.4900     1205
   8.5050     1233
   8.5200     1173
   8.5350     1119
   8.5500     1165
   8.5650     1149
   8.5800     1142
   8.5950     1153
   8.6100     1132
   8.6250     1111
   8.6400     1125
   8.6550     1122
   8.6700     1102
   8.6850     1144
   8.7000     1138
   8.7150     1153
   8.7300     1180
   8.7450     1085
   8.7600     1097
   8.7750     1057
   8.7900     1094
   8.8050     1058
   8.8200     1055
   8.8350     1064
   8.8500     1073
   8.8650     1081
   8.8800     1053
   8.8950     1042
   8.9100     1043
   8.9250     1041
   8.9400     1027
   8.9550     1008
   8.9700     1039
   8.9850     1044
   9.0000     1085
   9.0150     1006
   9.0300     1051
   9.0450     1065
   9.0600     1030
   9.0750     1030
   9.0900     1033
   9.1050     1043
   9.1200     1062
   9.1350     1029
   9.1500     1012
   9.1650     1010
   9.1800      995
   9.1950      980
   9.2100     1006
   9.2250     1036
   9.2400      995
   9.2550      989
   9.2700     1076
   9.2850     1074
   9.3000     1059
   9.3150     1021
   9.3300     1010
   9.3450     1020
   9.3600      995
   9.3750     1029
   9.3900     1066
   9.4050     1059
   9.4200     1138
   9.4350     1098
   9.4500     1099
   9.4650     1144
   9.4800     1139
   9.4950     1188
   9.5100     1395
   9.5250     1585
   9.5400     1435
   9.5550     1126
   9.5700     1033
   9.5850      991
   9.6000     1014
   9.6150     1021
   9.6300      985
   9.6450     1032
   9.6600     1017
   9.6750     1026
   9.6900     1014
   9.7050     1027
   9.7200     1085
   9.7350     1035
   9.7500     1004
   9.7650     1056
   9.7800      985
   9.7950      992
   9.8100     1040
   9.8250     1050
   9.8400     1047
   9.8550     1068
   9.8700     1052
   9.8850     1020
   9.9000     1026
   9.9150     1045
   9.9300     1099
   9.9450     1071
   9.9600     1059
   9.9750     1092
   9.9900     1068
  10.0050     1047
  10.0200     1044
  10.0350     1097
  10.0500     1071
  10.0650     1063
  10.0800     1064
  10.0950     1038
  10.1100     1056
  10.1250     1054
  10.1400     1029
  10.1550     1094
  10.1700     1113
  10.1850     1073
  10.2000     1049
  10.2150     1079
  10.2300     1019
  10.2450     1042
  10.2600     1050
  10.2750     1031
  10.2900     1056
  10.3050     1047
  10.3200     1096
  10.3350     1108
  10.3500     1057
  10.3650     1031
  10.3800     1061
  10.3950     1085
  10.4100     1047
  10.4250     1042
  10.4400     1044
  10.4550     1069
  10.4700     1021
  10.4850     1026
  10.5000     1032
  10.5150     1009
  10.5300     1045
  10.5450     1052
  10.5600     1053
  10.5750     1066
  10.5900     1086
  10.6050     1105
  10.6200     1076
  10.6350     1084
  10.6500     1115
  10.6650     1121
  10.6800     1079
  10.6950     1108
  10.7100     1063
  10.7250     1072
  10.7400     1088
  10.7550     1101
  10.7700     1031
  10.7850     1036
  10.8000     1094
  10.8150     1046
  10.8300     1065
  10.8450     1073
  10.8600     1063
  10.8750     1035
  10.8900     1011
  10.9050     1033
  10.9200     1037
  10.9350     1061
  10.9500     1069
  10.9650     1026
  10.9800     1036
  10.9950     1062
  11.0100     1007
  11.0250     1014
  11.0400      976
  11.0550     1018
  11.0700     1030
  11.0850     1026
  11.1000     1017
  11.1150     1008
  11.1300     1011
  11.1450      992
  11.1600      993
  11.1750      985
  11.1900      957
  11.2050      975
  11.2200      944
  11.2350      978
  11.2500      987
  11.2650     1011
  11.2800      998
  11.2950      996
  11.3100      977
  11.3250      975
  11.3400      970
  11.3550      959
  11.3700     1010
  11.3850      978
  11.4000      929
  11.4150      937
  11.4300      972
  11.4450     1019
  11.4600     1015
  11.4750      994
  11.4900      957
  11.5050      985
  11.5200     1022
  11.5350      971
  11.5500      978
  11.5650      937
  11.5800      989
  11.5950      985
  11.6100     1000
  11.6250     1026
  11.6400     1033
  11.6550     1010
  11.6700     1034
  11.6850     1052
  11.7000     1029
  11.7150      997
  11.7300     1005
  11.7450     1021
  11.7600     1021
  11.7750     1018
  11.7900     1029
  11.8050     1063
  11.8200     1009
  11.8350     1000
  11.8500      968
  11.8650     1009
  11.8800     1019
  11.8950     1003
  11.9100     1008
  11.9250     1024
  11.9400     1000
  11.9550     1024
  11.9700     1071
  11.9850     1160
  12.0000     1231
  12.0150     1223
  12.0300     1185
  12.0450     1160
  12.0600     1226
  12.0750     1246
  12.0900     1316
  12.1050     1359
  12.1200     1644
  12.1350     1783
  12.1500     1681
  12.1650     1375
  12.1800     1135
  12.1950     1113
  12.2100     1086
  12.2250     1084
  12.2400     1096
  12.2550     1062
  12.2700     1126
  12.2850     1088
  12.3000     1093
  12.3150     1080
  12.3300     1092
  12.3450     1054
  12.3600     1061
  12.3750     1080
  12.3900     1077
  12.4050     1056
  12.4200     1073
  12.4350     1076
  12.4500     1110
  12.4650     1086
  12.4800     1049
  12.4950     1096
  12.5100     1090
  12.5250     1045
  12.5400     1025
  12.5550     1098
  12.5700     1076
  12.5850     1119
  12.6000     1124
  12.6150     1067
  12.6300     1082
  12.6450     1109
  12.6600     1148
  12.6750     1195
  12.6900     1135
  12.7050     1160
  12.7200     1147
  12.7350     1246
  12.7500     1202
  12.7650     1119
  12.7800     1143
  12.7950     1207
  12.8100     1187
  12.8250     1235
  12.8400     1273
  12.8550     1260
  12.8700     1274
  12.8850     1244
  12.9000     1233
  12.9150     1225
  12.9300     1210
  12.9450     1245
  12.9600     1226
  12.9750     1243
  12.9900     1248
  13.0050     1273
  13.0200     1239
  13.0350     1171
  13.0500     1185
  13.0650     1235
  13.0800     1204
  13.0950     1224
  13.1100     1314
  13.1250     1282
  13.1400     1232
  13.1550     1277
  13.1700     1232
  13.1850     1251
  13.2000     1294
  13.2150     1240
  13.2300     1300
  13.2450     1263
  13.2600     1321
  13.2750     1323
  13.2900     1357
  13.3050     1294
  13.3200     1367
  13.3350     1333
  13.3500     1295
  13.3650     1346
  13.3800     1376
  13.3950     1333
  13.4100     1400
  13.4250     1335
  13.4400     1359
  13.4550     1391
  13.4700     1390
  13.4850     1421
  13.5000     1428
  13.5150     1356
  13.5300     1412
  13.5450     1433
  13.5600     1440
  13.5750     1466
  13.5900     1500
  13.6050     1432
  13.6200     1551
  13.6350     1550
  13.6500     1583
  13.6650     1569
  13.6800     1609
  13.6950     1642
  13.7100     1573
  13.7250     1563
  13.7400     1559
  13.7550     1580
  13.7700     1520
  13.7850     1467
  13.8000     1479
  13.8150     1520
  13.8300     1488
  13.8450     1467
  13.8600     1465
  13.8750     1410
  13.8900     1411
  13.9050     1410
  13.9200     1376
  13.9350     1395
  13.9500     1340
  13.9650     1397
  13.9800     1371
  13.9950     1366
  14.0100     1397
  14.0250     1340
  14.0400     1360
  14.0550     1343
  14.0700     1297
  14.0850     1314
  14.1000     1341
  14.1150     1374
  14.1300     1293
  14.1450     1275
  14.1600     1246
  14.1750     1264
  14.1900     1247
  14.2050     1260
  14.2200     1254
  14.2350     1253
  14.2500     1266
  14.2650     1157
  14.2800     1177
  14.2950     1246
  14.3100     1223
  14.3250     1207
  14.3400     1171
  14.3550     1161
  14.3700     1165
  14.3850     1154
  14.4000     1162
  14.4150     1131
  14.4300     1158
  14.4450     1167
  14.4600     1179
  14.4750     1147
  14.4900     1174
  14.5050     1125
  14.5200     1101
  14.5350     1092
  14.5500     1050
  14.5650     1089
  14.5800     1091
  14.5950     1030
  14.6100     1058
  14.6250     1060
  14.6400     1060
  14.6550     1077
  14.6700     1070
  14.6850     1026
  14.7000     1082
  14.7150     1069
  14.7300     1086
  14.7450     1050
  14.7600     1120
  14.7750     1099
  14.7900     1061
  14.8050     1089
  14.8200     1118
  14.8350     1084
  14.8500     1072
  14.8650     1106
  14.8800     1144
  14.8950     1096
  14.9100     1150
  14.9250     1174
  14.9400     1145
  14.9550     1128
  14.9700     1162
  14.9850     1199
  15.0000     1158
  15.0150     1200
  15.0300     1254
  15.0450     1221
  15.0600     1162
  15.0750     1172
  15.0900     1183
  15.1050     1217
  15.1200     1167
  15.1350     1154
  15.1500     1224
  15.1650     1157
  15.1800     1225
  15.1950     1205
  15.2100     1213
  15.2250     1189
  15.2400     1218
  15.2550     1225
  15.2700     1197
  15.2850     1249
  15.3000     1200
  15.3150     1214
  15.3300     1201
  15.3450     1181
  15.3600     1155
  15.3750     1208
  15.3900     1225
  15.4050     1221
  15.4200     1214
  15.4350     1232
  15.4500     1223
  15.4650     1232
  15.4800     1235
  15.4950     1188
  15.5100     1185
  15.5250     1226
  15.5400     1202
  15.5550     1246
  15.5700     1196
  15.5850     1243
  15.6000     1244
  15.6150     1274
  15.6300     1255
  15.6450     1257
  15.6600     1265
  15.6750     1293
  15.6900     1293
  15.7050     1317
  15.7200     1328
  15.7350     1318
  15.7500     1359
  15.7650     1460
  15.7800     1440
  15.7950     1471
  15.8100     1541
  15.8250     1582
  15.8400     1513
  15.8550     1535
  15.8700     1572
  15.8850     1586
  15.9000     1624
  15.9150     1676
  15.9300     1691
  15.9450     1753
  15.9600     1830
  15.9750     1838
  15.9900     1787
  16.0050     1808
  16.0200     1717
  16.0350     1690
  16.0500     1631
  16.0650     1621
  16.0800     1666
  16.0950     1610
  16.1100     1656
  16.1250     1627
  16.1400     1631
  16.1550     1695
  16.1700     1641
  16.1850     1588
  16.2000     1612
  16.2150     1684
  16.2300     1681
  16.2450     1655
  16.2600     1727
  16.2750     1600
  16.2900     1625
  16.3050     1622
  16.3200     1645
  16.3350     1657
  16.3500     1741
  16.3650     1747
  16.3800     1735
  16.3950     1796
  16.4100     1700
  16.4250     1762
  16.4400     1789
  16.4550     1829
  16.4700     1848
  16.4850     1899
  16.5000     1955
  16.5150     1987
  16.5300     2082
  16.5450     2169
  16.5600     2171
  16.5750     2084
  16.5900     2005
  16.6050     1971
  16.6200     2003
  16.6350     1910
  16.6500     1860
  16.6650     1835
  16.6800     1882
  16.6950     1846
  16.7100     1791
  16.7250     1763
  16.7400     1822
  16.7550     1773
  16.7700     1747
  16.7850     1748
  16.8000     1785
  16.8150     1728
  16.8300     1726
  16.8450     1782
  16.8600     1786
  16.8750     1757
  16.8900     1746
  16.9050     1781
  16.9200     1650
  16.9350     1715
  16.9500     1698
  16.9650     1743
  16.9800     1748
  16.9950     1677
  17.0100     1720
  17.0250     1731
  17.0400     1801
  17.0550     1805
  17.0700     1724
  17.0850     1731
  17.1000     1712
  17.1150     1731
  17.1300     1654
  17.1450     1737
  17.1600     1776
  17.1750     1737
  17.1900     1752
  17.2050     1676
  17.2200     1675
  17.2350     1648
  17.2500     1677
  17.2650     1697
  17.2800     1686
  17.2950     1711
  17.3100     1711
  17.3250     1654
  17.3400     1620
  17.3550     1657
  17.3700     1673
  17.3850     1690
  17.4000     1674
  17.4150     1724
  17.4300     1735
  17.4450     1739
  17.4600     1703
  17.4750     1754
  17.4900     1667
  17.5050     1681
  17.5200     1781
  17.5350     1769
  17.5500     1671
  17.5650     1685
  17.5800     1699
  17.5950     1709
  17.6100     1671
  17.6250     1603
  17.6400     1671
  17.6550     1717
  17.6700     1681
  17.6850     1695
  17.7000     1776
  17.7150     1754
  17.7300     1719
  17.7450     1733
  17.7600     1724
  17.7750     1755
  17.7900     1835
  17.8050     1831
  17.8200     1844
  17.8350     1890
  17.8500     1858
  17.8650     1823
  17.8800     1802
  17.8950     1805
  17.9100     1862
  17.9250     1755
  17.9400     1792
  17.9550     1756
  17.9700     1784
  17.9850     1783
  18.0000     1709
  18.0150     1770
  18.0300     1852
  18.0450     1879
  18.0600     1901
  18.0750     1896
  18.0900     1883
  18.1050     1851
  18.1200     1911
  18.1350     1938
  18.1500     2003
  18.1650     1956
  18.1800     2010
  18.1950     1970
  18.2100     1996
  18.2250     1989
  18.2400     1971
  18.2550     1948
  18.2700     1898
  18.2850     1871
  18.3000     1979
  18.3150     1985
  18.3300     1943
  18.3450     1978
  18.3600     1929
  18.3750     1916
  18.3900     1957
  18.4050     1965
  18.4200     1858
  18.4350     1816
  18.4500     1869
  18.4650     1885
  18.4800     1850
  18.4950     1881
  18.5100     1881
  18.5250     1824
  18.5400     1895
  18.5550     1866
  18.5700     1895
  18.5850     1914
  18.6000     1916
  18.6150     1889
  18.6300     1887
  18.6450     1913
  18.6600     1960
  18.6750     1975
  18.6900     1915
  18.7050     1999
  18.7200     2023
  18.7350     2028
  18.7500     2123
  18.7650     2228
  18.7800     2333
  18.7950     2397
  18.8100     2575
  18.8250     2540
  18.8400     2663
  18.8550     2870
  18.8700     3105
  18.8850     3356
  18.9000     3515
  18.9150     3782
  18.9300     4066
  18.9450     4397
  18.9600     4303
  18.9750     4343
  18.9900     4413
  19.0050     4322
  19.0200     4108
  19.0350     3833
  19.0500     3561
  19.0650     3161
  19.0800     2952
  19.0950     2727
  19.1100     2542
  19.1250     2458
  19.1400     2321
  19.1550     2302
  19.1700     2254
  19.1850     2033
  19.2000     2056
  19.2150     2012
  19.2300     1853
  19.2450     1896
  19.2600     1909
  19.2750     1887
  19.2900     1857
  19.3050     1885
  19.3200     1889
  19.3350     1847
  19.3500     1820
  19.3650     1816
  19.3800     1809
  19.3950     1809
  19.4100     1852
  19.4250     1852
  19.4400     1766
  19.4550     1752
  19.4700     1830
  19.4850     1797
  19.5000     1779
  19.5150     1760
  19.5300     1822
  19.5450     1736
  19.5600     1818
  19.5750     1773
  19.5900     1820
  19.6050     1819
  19.6200     1835
  19.6350     1829
  19.6500     1798
  19.6650     1784
  19.6800     1814
  19.6950     1849
  19.7100     1824
  19.7250     1889
  19.7400     1846
  19.7550     1957
  19.7700     1952
  19.7850     1846
  19.8000     1887
  19.8150     1934
  19.8300     1883
  19.8450     1891
  19.8600     1928
  19.8750     1887
  19.8900     1880
  19.9050     1891
  19.9200     1910
  19.9350     1924
  19.9500     1924
  19.9650     1899
  19.9800     1952
  19.9950     1992
  20.0100     1969
  20.0250     1951
  20.0400     1921
  20.0550     1908
  20.0700     1978
  20.0850     2022
  20.1000     2082
  20.1150     1987
  20.1300     1950
  20.1450     1951
  20.1600     1925
  20.1750     1917
  20.1900     1881
  20.2050     1851
  20.2200     1866
  20.2350     1863
  20.2500     1779
  20.2650     1797
  20.2800     1847
  20.2950     1878
  20.3100     1870
  20.3250     1880
  20.3400     1828
  20.3550     1874
  20.3700     1869
  20.3850     1879
  20.4000     1830
  20.4150     1856
  20.4300     1891
  20.4450     1820
  20.4600     1797
  20.4750     1786
  20.4900     1748
  20.5050     1773
  20.5200     1740
  20.5350     1739
  20.5500     1769
  20.5650     1787
  20.5800     1818
  20.5950     1842
  20.6100     1749
  20.6250     1772
  20.6400     1788
  20.6550     1693
  20.6700     1700
  20.6850     1700
  20.7000     1684
  20.7150     1617
  20.7300     1672
  20.7450     1713
  20.7600     1624
  20.7750     1570
  20.7900     1621
  20.8050     1653
  20.8200     1560
  20.8350     1567
  20.8500     1602
  20.8650     1632
  20.8800     1622
  20.8950     1586
  20.9100     1590
  20.9250     1544
  20.9400     1577
  20.9550     1530
  20.9700     1569
  20.9850     1598
  21.0000     1537
  21.0150     1599
  21.0300     1617
  21.0450     1582
  21.0600     1587
  21.0750     1541
  21.0900     1557
  21.1050     1604
  21.1200     1631
  21.1350     1564
  21.1500     1610
  21.1650     1580
  21.1800     1595
  21.1950     1627
  21.2100     1571
  21.2250     1550
  21.2400     1554
  21.2550     1534
  21.2700     1583
  21.2850     1620
  21.3000     1546
  21.3150     1537
  21.3300     1518
  21.3450     1537
  21.3600     1476
  21.3750     1550
  21.3900     1496
  21.4050     1501
  21.4200     1509
  21.4350     1516
  21.4500     1521
  21.4650     1504
  21.4800     1522
  21.4950     1462
  21.5100     1438
  21.5250     1492
  21.5400     1472
  21.5550     1431
  21.5700     1440
  21.5850     1453
  21.6000     1499
  21.6150     1493
  21.6300     1555
  21.6450     1551
  21.6600     1521
  21.6750     1514
  21.6900     1496
  21.7050     1453
  21.7200     1430
  21.7350     1450
  21.7500     1390
  21.7650     1434
  21.7800     1422
  21.7950     1325
  21.8100     1419
  21.8250     1432
  21.8400     1414
  21.8550     1403
  21.8700     1362
  21.8850     1322
  21.9000     1315
  21.9150     1340
  21.9300     1347
  21.9450     1281
  21.9600     1303
  21.9750     1296
  21.9900     1310
  22.0050     1351
  22.0200     1294
  22.0350     1238
  22.0500     1309
  22.0650     1274
  22.0800     1300
  22.0950     1250
  22.1100     1218
  22.1250     1246
  22.1400     1189
  22.1550     1218
  22.1700     1255
  22.1850     1283
  22.2000     1256
  22.2150     1216
  22.2300     1221
  22.2450     1242
  22.2600     1179
  22.2750     1169
  22.2900     1206
  22.3050     1214
  22.3200     1170
  22.3350     1155
  22.3500     1152
  22.3650     1181
  22.3800     1221
  22.3950     1223
  22.4100     1195
  22.4250     1205
  22.4400     1241
  22.4550     1280
  22.4700     1259
  22.4850     1203
  22.5000     1188
  22.5150     1212
  22.5300     1176
  22.5450     1137
  22.5600     1153
  22.5750     1107
  22.5900     1149
  22.6050     1144
  22.6200     1152
  22.6350     1095
  22.6500     1131
  22.6650     1066
  22.6800     1099
  22.6950     1153
  22.7100     1163
  22.7250     1084
  22.7400     1108
  22.7550     1077
  22.7700     1089
  22.7850     1120
  22.8000     1118
  22.8150     1120
  22.8300     1101
  22.8450     1079
  22.8600     1106
  22.8750     1082
  22.8900     1147
  22.9050     1128
  22.9200     1098
  22.9350     1086
  22.9500     1121
  22.9650     1078
  22.9800     1128
  22.9950     1083
  23.0100     1095
  23.0250     1100
  23.0400     1102
  23.0550     1116
  23.0700     1092
  23.0850     1097
  23.1000     1108
  23.1150     1105
  23.1300     1143
  23.1450     1133
  23.1600     1118
  23.1750     1085
  23.1900     1122
  23.2050     1068
  23.2200     1094
  23.2350     1079
  23.2500     1076
  23.2650     1133
  23.2800     1085
  23.2950     1122
  23.3100     1103
  23.3250     1074
  23.3400     1137
  23.3550     1103
  23.3700     1100
  23.3850     1072
  23.4000     1121
  23.4150     1145
  23.4300     1072
  23.4450     1083
  23.4600     1107
  23.4750     1121
  23.4900     1125
  23.5050     1106
  23.5200     1057
  23.5350     1054
  23.5500     1133
  23.5650     1102
  23.5800     1073
  23.5950     1067
  23.6100     1036
  23.6250     1081
  23.6400     1118
  23.6550     1157
  23.6700     1102
  23.6850     1079
  23.7000     1135
  23.7150     1119
  23.7300     1125
  23.7450     1100
  23.7600     1190
  23.7750     1119
  23.7900     1135
  23.8050     1117
  23.8200     1102
  23.8350     1150
  23.8500     1202
  23.8650     1198
  23.8800     1150
  23.8950     1093
  23.9100     1100
  23.9250     1104
  23.9400     1165
  23.9550     1155
  23.9700     1155
  23.9850     1135
  24.0000     1114
  24.0150     1106
  24.0300     1130
  24.0450     1153
  24.0600     1144
  24.0750     1131
  24.0900     1145
  24.1050     1139
  24.1200     1151
  24.1350     1153
  24.1500     1140
  24.1650     1143
  24.1800     1150
  24.1950     1131
  24.2100     1148
  24.2250     1126
  24.2400     1113
  24.2550     1118
  24.2700     1098
  24.2850     1168
  24.3000     1167
  24.3150     1196
  24.3300     1195
  24.3450     1198
  24.3600     1214
  24.3750     1187
  24.3900     1138
  24.4050     1204
  24.4200     1240
  24.4350     1206
  24.4500     1210
  24.4650     1168
  24.4800     1225
  24.4950     1198
  24.5100     1257
  24.5250     1292
  24.5400     1270
  24.5550     1193
  24.5700     1244
  24.5850     1288
  24.6000     1297
  24.6150     1306
  24.6300     1336
  24.6450     1326
  24.6600     1308
  24.6750     1240
  24.6900     1319
  24.7050     1257
  24.7200     1298
  24.7350     1296
  24.7500     1314
  24.7650     1286
  24.7800     1324
  24.7950     1338
  24.8100     1319
  24.8250     1340
  24.8400     1378
  24.8550     1396
  24.8700     1283
  24.8850     1282
  24.9000     1308
  24.9150     1317
  24.9300     1271
  24.9450     1233
  24.9600     1218
  24.9750     1290
  24.9900     1269
  25.0050     1272
  25.0200     1301
  25.0350     1264
  25.0500     1310
  25.0650     1297
  25.0800     1312
  25.0950     1332
  25.1100     1329
  25.1250     1331
  25.1400     1300
  25.1550     1315
  25.1700     1317
  25.1850     1316
  25.2000     1332
  25.2150     1349
  25.2300     1331
  25.2450     1305
  25.2600     1301
  25.2750     1269
  25.2900     1334
  25.3050     1314
  25.3200     1277
  25.3350     1232
  25.3500     1311
  25.3650     1267
  25.3800     1211
  25.3950     1257
  25.4100     1306
  25.4250     1248
  25.4400     1242
  25.4550     1214
  25.4700     1242
  25.4850     1185
  25.5000     1275
  25.5150     1274
  25.5300     1269
  25.5450     1195
  25.5600     1232
  25.5750     1258
  25.5900     1247
  25.6050     1257
  25.6200     1243
  25.6350     1287
  25.6500     1205
  25.6650     1210
  25.6800     1274
  25.6950     1306
  25.7100     1283
  25.7250     1284
  25.7400     1305
  25.7550     1361
  25.7700     1317
  25.7850     1312
  25.8000     1294
  25.8150     1337
  25.8300     1350
  25.8450     1335
  25.8600     1286
  25.8750     1291
  25.8900     1262
  25.9050     1272
  25.9200     1284
  25.9350     1282
  25.9500     1269
  25.9650     1273
  25.9800     1312
  25.9950     1259
  26.0100     1279
  26.0250     1281
  26.0400     1292
  26.0550     1225
  26.0700     1288
  26.0850     1336
  26.1000     1236
  26.1150     1282
  26.1300     1282
  26.1450     1264
  26.1600     1294
  26.1750     1289
  26.1900     1334
  26.2050     1325
  26.2200     1268
  26.2350     1213
  26.2500     1204
  26.2650     1239
  26.2800     1220
  26.2950     1243
  26.3100     1248
  26.3250     1235
  26.3400     1211
  26.3550     1186
  26.3700     1188
  26.3850     1245
  26.4000     1244
  26.4150     1262
  26.4300     1221
  26.4450     1229
  26.4600     1231
  26.4750     1272
  26.4900     1226
  26.5050     1257
  26.5200     1296
  26.5350     1325
  26.5500     1466
  26.5650     1693
  26.5800     1861
  26.5950     1827
  26.6100     1630
  26.6250     1365
  26.6400     1245
  26.6550     1215
  26.6700     1241
  26.6850     1212
  26.7000     1187
  26.7150     1241
  26.7300     1193
  26.7450     1218
  26.7600     1264
  26.7750     1234
  26.7900     1239
  26.8050     1222
  26.8200     1236
  26.8350     1251
  26.8500     1330
  26.8650     1368
  26.8800     1364
  26.8950     1351
  26.9100     1379
  26.9250     1378
  26.9400     1460
  26.9550     1446
  26.9700     1423
  26.9850     1524
  27.0000     1458
  27.0150     1443
  27.0300     1464
  27.0450     1451
  27.0600     1422
  27.0750     1340
  27.0900     1403
  27.1050     1375
  27.1200     1416
  27.1350     1358
  27.1500     1331
  27.1650     1333
  27.1800     1255
  27.1950     1283
  27.2100     1317
  27.2250     1264
  27.2400     1284
  27.2550     1214
  27.2700     1281
  27.2850     1318
  27.3000     1230
  27.3150     1278
  27.3300     1296
  27.3450     1290
  27.3600     1348
  27.3750     1326
  27.3900     1356
  27.4050     1394
  27.4200     1340
  27.4350     1363
  27.4500     1397
  27.4650     1382
  27.4800     1343
  27.4950     1342
  27.5100     1353
  27.5250     1331
  27.5400     1265
  27.5550     1222
  27.5700     1237
  27.5850     1259
  27.6000     1310
  27.6150     1266
  27.6300     1260
  27.6450     1252
  27.6600     1233
  27.6750     1328
  27.6900     1246
  27.7050     1270
  27.7200     1195
  27.7350     1215
  27.7500     1249
  27.7650     1243
  27.7800     1206
  27.7950     1205
  27.8100     1171
  27.8250     1139
  27.8400     1212
  27.8550     1179
  27.8700     1133
  27.8850     1202
  27.9000     1146
  27.9150     1125
  27.9300     1095
  27.9450     1126
  27.9600     1136
  27.9750     1122
  27.9900     1080
  28.0050     1054
  28.0200     1032
  28.0350     1059
  28.0500     1077
  28.0650     1055
  28.0800     1039
  28.0950     1067
  28.1100     1065
  28.1250     1098
  28.1400     1077
  28.1550     1058
  28.1700     1034
  28.1850     1071
  28.2000     1007
  28.2150     1020
  28.2300     1018
  28.2450     1037
  28.2600     1022
  28.2750     1015
  28.2900      996
  28.3050      942
  28.3200      984
  28.3350      995
  28.3500      983
  28.3650      915
  28.3800      898
  28.3950      901
  28.4100      915
  28.4250      931
  28.4400      910
  28.4550      891
  28.4700      883
  28.4850      894
  28.5000      891
  28.5150      936
  28.5300      960
  28.5450      888
  28.5600      903
  28.5750      897
  28.5900      874
  28.6050      890
  28.6200      898
  28.6350      848
  28.6500      905
  28.6650      931
  28.6800      864
  28.6950      895
  28.7100      868
  28.7250      889
  28.7400      908
  28.7550      854
  28.7700      865
  28.7850      875
  28.8000      867
  28.8150      852
  28.8300      842
  28.8450      846
  28.8600      829
  28.8750      826
  28.8900      812
  28.9050      836
  28.9200      841
  28.9350      836
  28.9500      838
  28.9650      851
  28.9800      824
  28.9950      817
  29.0100      841
  29.0250      793
  29.0400      802
  29.0550      799
  29.0700      822
  29.0850      827
  29.1000      849
  29.1150      766
  29.1300      780
  29.1450      802
  29.1600      774
  29.1750      806
  29.1900      816
  29.2050      745
  29.2200      770
  29.2350      779
  29.2500      787
  29.2650      754
  29.2800      759
  29.2950      764
  29.3100      750
  29.3250      762
  29.3400      745
  29.3550      746
  29.3700      794
  29.3850      738
  29.4000      736
  29.4150      791
  29.4300      760
  29.4450      829
  29.4600      797
  29.4750      767
  29.4900      763
  29.5050      763
  29.5200      795
  29.5350      765
  29.5500      785
  29.5650      755
  29.5800      737
  29.5950      708
  29.6100      725
  29.6250      705
  29.6400      719
  29.6550      780
  29.6700      796
  29.6850      826
  29.7000      887
  29.7150      967
  29.7300      892
  29.7450      835
  29.7600      818
  29.7750      778
  29.7900      764
  29.8050      721
  29.8200      743
  29.8350      754
  29.8500      852
  29.8650      907
  29.8800      915
  29.8950      869
  29.9100      897
  29.9250      823
  29.9400      841
  29.9550      872
  29.9700      849
  29.9850      785
  30.0000      709
  30.0150      738
  30.0300      813
  30.0450      755
  30.0600      710
  30.0750      712
  30.0900      714
  30.1050      703
  30.1200      734
  30.1350      755
  30.1500      725
  30.1650      748
  30.1800      730
  30.1950      671
  30.2100      676
  30.2250      665
  30.2400      678
  30.2550      694
  30.2700      657
  30.2850      735
  30.3000      705
  30.3150      706
  30.3300      706
  30.3450      701
  30.3600      662
  30.3750      702
  30.3900      714
  30.4050      712
  30.4200      702
  30.4350      693
  30.4500      729
  30.4650      721
  30.4800      704
  30.4950      679
  30.5100      692
  30.5250      669
  30.5400      714
  30.5550      703
  30.5700      711
  30.5850      695
  30.6000      727
  30.6150      664
  30.6300      682
  30.6450      729
  30.6600      692
  30.6750      722
  30.6900      693
  30.7050      664
  30.7200      660
  30.7350      680
  30.7500      647
  30.7650      692
  30.7800      693
  30.7950      637
  30.8100      694
  30.8250      682
  30.8400      654
  30.8550      657
  30.8700      658
  30.8850      693
  30.9000      706
  30.9150      692
  30.9300      658
  30.9450      662
  30.9600      694
  30.9750      648
  30.9900      650
  31.0050      672
  31.0200      693
  31.0350      701
  31.0500      648
  31.0650      693
  31.0800      694
  31.0950      717
  31.1100      656
  31.1250      673
  31.1400      693
  31.1550      684
  31.1700      666
  31.1850      648
  31.2000      669
  31.2150      654
  31.2300      665
  31.2450      707
  31.2600      663
  31.2750      666
  31.2900      690
  31.3050      655
  31.3200      646
  31.3350      658
  31.3500      672
  31.3650      676
  31.3800      663
  31.3950      615
  31.4100      634
  31.4250      649
  31.4400      703
  31.4550      713
  31.4700      678
  31.4850      659
  31.5000      647
  31.5150      692
  31.5300      680
  31.5450      662
  31.5600      649
  31.5750      659
  31.5900      696
  31.6050      657
  31.6200      623
  31.6350      665
  31.6500      671
  31.6650      642
  31.6800      670
  31.6950      675
  31.7100      714
  31.7250      663
  31.7400      715
  31.7550      682
  31.7700      717
  31.7850      699
  31.8000      737
  31.8150      697
  31.8300      705
  31.8450      674
  31.8600      696
  31.8750      680
  31.8900      693
  31.9050      651
  31.9200      640
  31.9350      724
  31.9500      693
  31.9650      707
  31.9800      645
  31.9950      712
  32.0100      678
  32.0250      708
  32.0400      669
  32.0550      671
  32.0700      711
  32.0850      682
  32.1000      647
  32.1150      654
  32.1300      643
  32.1450      679
  32.1600      673
  32.1750      617
  32.1900      648
  32.2050      638
  32.2200      667
  32.2350      676
  32.2500      656
  32.2650      647
  32.2800      697
  32.2950      685
  32.3100      698
  32.3250      730
  32.3400      689
  32.3550      665
  32.3700      721
  32.3850      710
  32.4000      691
  32.4150      671
  32.4300      655
  32.4450      601
  32.4600      697
  32.4750      676
  32.4900      686
  32.5050      676
  32.5200      680
  32.5350      694
  32.5500      678
  32.5650      686
  32.5800      712
  32.5950      667
  32.6100      669
  32.6250      682
  32.6400      678
  32.6550      712
  32.6700      706
  32.6850      708
  32.7000      713
  32.7150      709
  32.7300      768
  32.7450      771
  32.7600      778
  32.7750      846
  32.7900      904
  32.8050      859
  32.8200      784
  32.8350      787
  32.8500      802
  32.8650      722
  32.8800      715
  32.8950      747
  32.9100      772
  32.9250      725
  32.9400      725
  32.9550      759
  32.9700      813
  32.9850      836
  33.0000      779
  33.0150      843
  33.0300      867
  33.0450      864
  33.0600      930
  33.0750      902
  33.0900      923
  33.1050      962
  33.1200     1005
  33.1350     1072
  33.1500     1048
  33.1650     1115
  33.1800     1056
  33.1950     1101
  33.2100     1121
  33.2250     1177
  33.2400     1146
  33.2550     1148
  33.2700     1146
  33.2850     1071
  33.3000     1118
  33.3150     1062
  33.3300     1061
  33.3450     1004
  33.3600      955
  33.3750      984
  33.3900      955
  33.4050      902
  33.4200      877
  33.4350      841
  33.4500      816
  33.4650      800
  33.4800      843
  33.4950      827
  33.5100      794
  33.5250      802
  33.5400      775
  33.5550      754
  33.5700      752
  33.5850      764
  33.6000      776
  33.6150      725
  33.6300      690
  33.6450      723
  33.6600      708
  33.6750      729
  33.6900      740
  33.7050      746
  33.7200      694
  33.7350      719
  33.7500      675
  33.7650      705
  33.7800      693
  33.7950      681
  33.8100      680
  33.8250      701
  33.8400      717
  33.8550      697
  33.8700      699
  33.8850      715
  33.9000      708
  33.9150      669
  33.9300      716
  33.9450      706
  33.9600      712
  33.9750      692
  33.9900      714
  34.0050      675
  34.0200      739
  34.0350      694
  34.0500      672
  34.0650      682
  34.0800      705
  34.0950      676
  34.1100      696
  34.1250      677
  34.1400      691
  34.1550      729
  34.1700      697
  34.1850      675
  34.2000      755
  34.2150      714
  34.2300      733
  34.2450      731
  34.2600      716
  34.2750      718
  34.2900      735
  34.3050      753
  34.3200      757
  34.3350      759
  34.3500      777
  34.3650      759
  34.3800      771
  34.3950      742
  34.4100      768
  34.4250      758
  34.4400      797
  34.4550      773
  34.4700      755
  34.4850      720
  34.5000      732
  34.5150      747
  34.5300      794
  34.5450      784
  34.5600      749
  34.5750      670
  34.5900      730
  34.6050      726
  34.6200      757
  34.6350      736
  34.6500      720
  34.6650      727
  34.6800      740
  34.6950      761
  34.7100      757
  34.7250      732
  34.7400      710
  34.7550      776
  34.7700      739
  34.7850      760
  34.8000      729
  34.8150      777
  34.8300      779
  34.8450      774
  34.8600      816
  34.8750      750
  34.8900      756
  34.9050      789
  34.9200      748
  34.9350      763
  34.9500      777
  34.9650      787
  34.9800      809
  34.9950      748
  35.0100      773
  35.0250      771
  35.0400      712
  35.0550      763
  35.0700      755
  35.0850      751
  35.1000      745
  35.1150      740
  35.1300      755
  35.1450      803
  35.1600      784
  35.1750      773
  35.1900      758
  35.2050      739
  35.2200      787
  35.2350      786
  35.2500      756
  35.2650      737
  35.2800      714
  35.2950      764
  35.3100      735
  35.3250      730
  35.3400      793
  35.3550      745
  35.3700      733
  35.3850      778
  35.4000      763
  35.4150      764
  35.4300      739
  35.4450      752
  35.4600      799
  35.4750      753
  35.4900      735
  35.5050      796
  35.5200      800
  35.5350      835
  35.5500      784
  35.5650      791
  35.5800      786
  35.5950      761
  35.6100      784
  35.6250      800
  35.6400      774
  35.6550      749
  35.6700      819
  35.6850      828
  35.7000      816
  35.7150      783
  35.7300      792
  35.7450      817
  35.7600      789
  35.7750      794
  35.7900      827
  35.8050      832
  35.8200      844
  35.8350      844
  35.8500      822
  35.8650      822
  35.8800      804
  35.8950      844
  35.9100      806
  35.9250      816
  35.9400      790
  35.9550      843
  35.9700      795
  35.9850      784
  36.0000      777
  36.0150      776
  36.0300      781
  36.0450      776
  36.0600      794
  36.0750      819
  36.0900      822
  36.1050      821
  36.1200      817
  36.1350      828
  36.1500      863
  36.1650      861
  36.1800      843
  36.1950      817
  36.2100      842
  36.2250      858
  36.2400      841
  36.2550      813
  36.2700      825
  36.2850      819
  36.3000      864
  36.3150      802
  36.3300      783
  36.3450      813
  36.3600      802
  36.3750      806
  36.3900      819
  36.4050      835
  36.4200      810
  36.4350      847
  36.4500      848
  36.4650      877
  36.4800      907
  36.4950      868
  36.5100      846
  36.5250      817
  36.5400      886
  36.5550      879
  36.5700      831
  36.5850      795
  36.6000      820
  36.6150      851
  36.6300      868
  36.6450      826
  36.6600      834
  36.6750      844
  36.6900      811
  36.7050      872
  36.7200      832
  36.7350      817
  36.7500      814
  36.7650      864
  36.7800      887
  36.7950      816
  36.8100      814
  36.8250      821
  36.8400      801
  36.8550      841
  36.8700      850
  36.8850      825
  36.9000      850
  36.9150      853
  36.9300      792
  36.9450      864
  36.9600      865
  36.9750      844
  36.9900      777
  37.0050      783
  37.0200      766
  37.0350      858
  37.0500      861
  37.0650      840
  37.0800      817
  37.0950      825
  37.1100      830
  37.1250      801
  37.1400      849
  37.1550      865
  37.1700      832
  37.1850      814
  37.2000      823
  37.2150      817
  37.2300      826
  37.2450      808
  37.2600      844
  37.2750      815
  37.2900      824
  37.3050      792
  37.3200      832
  37.3350      818
  37.3500      819
  37.3650      810
  37.3800      815
  37.3950      826
  37.4100      853
  37.4250      790
  37.4400      838
  37.4550      866
  37.4700      863
  37.4850      800
  37.5000      831
  37.5150      829
  37.5300      843
  37.5450      829
  37.5600      851
  37.5750      792
  37.5900      765
  37.6050      791
  37.6200      802
  37.6350      823
  37.6500      833
  37.6650      803
  37.6800      804
  37.6950      844
  37.7100      817
  37.7250      827
  37.7400      798
  37.7550      826
  37.7700      816
  37.7850      860
  37.8000      868
  37.8150      851
  37.8300      798
  37.8450      830
  37.8600      798
  37.8750      808
  37.8900      813
  37.9050      797
  37.9200      827
  37.9350      790
  37.9500      799
  37.9650      784
  37.9800      787
  37.9950      778
  38.0100      851
  38.0250      839
  38.0400      834
  38.0550      829
  38.0700      827
  38.0850      853
  38.1000      857
  38.1150      860
  38.1300      856
  38.1450      900
  38.1600      834
  38.1750      854
  38.1900      852
  38.2050      860
  38.2200      856
  38.2350      869
  38.2500      914
  38.2650      932
  38.2800      923
  38.2950      933
  38.3100      884
  38.3250      906
  38.3400      875
  38.3550      873
  38.3700      903
  38.3850      863
  38.4000      925
  38.4150      923
  38.4300      926
  38.4450      921
  38.4600      900
  38.4750      914
  38.4900      912
  38.5050      936
  38.5200      939
  38.5350      937
  38.5500      897
  38.5650      996
  38.5800      958
  38.5950      949
  38.6100     1004
  38.6250      991
  38.6400      933
  38.6550      937
  38.6700      934
  38.6850      939
  38.7000      873
  38.7150      916
  38.7300      897
  38.7450      888
  38.7600      869
  38.7750      870
  38.7900      852
  38.8050      867
  38.8200      826
  38.8350      830
  38.8500      836
  38.8650      822
  38.8800      843
  38.8950      832
  38.9100      796
  38.9250      803
  38.9400      837
  38.9550      820
  38.9700      857
  38.9850      820
  39.0000      808
  39.0150      780
  39.0300      814
  39.0450      855
  39.0600      846
  39.0750      817
  39.0900      813
  39.1050      855
  39.1200      855
  39.1350      815
  39.1500      825
  39.1650      772
  39.1800      860
  39.1950      786
  39.2100      779
  39.2250      783
  39.2400      791
  39.2550      761
  39.2700      786
  39.2850      811
  39.3000      811
  39.3150      793
  39.3300      758
  39.3450      785
  39.3600      750
  39.3750      768
  39.3900      793
  39.4050      789
  39.4200      801
  39.4350      762
  39.4500      786
  39.4650      788
  39.4800      805
  39.4950      784
  39.5100      792
  39.5250      789
  39.5400      780
  39.5550      783
  39.5700      793
  39.5850      800
  39.6000      767
  39.6150      769
  39.6300      779
  39.6450      764
  39.6600      792
  39.6750      822
  39.6900      790
  39.7050      774
  39.7200      786
  39.7350      804
  39.7500      758
  39.7650      759
  39.7800      805
  39.7950      727
  39.8100      745
  39.8250      739
  39.8400      734
  39.8550      728
  39.8700      754
  39.8850      750
  39.9000      743
  39.9150      715
  39.9300      764
  39.9450      755
  39.9600      753
  39.9750      731
  39.9900      752
  40.0050      751
  40.0200      749
  40.0350      747
  40.0500      743
  40.0650      737
  40.0800      740
  40.0950      751
  40.1100      722
  40.1250      746
  40.1400      729
  40.1550      686
  40.1700      736
  40.1850      705
  40.2000      754
  40.2150      720
  40.2300      702
  40.2450      707
  40.2600      712
  40.2750      720
  40.2900      771
  40.3050      736
  40.3200      716
  40.3350      745
  40.3500      714
  40.3650      743
  40.3800      747
  40.3950      722
  40.4100      751
  40.4250      699
  40.4400      723
  40.4550      751
  40.4700      763
  40.4850      759
  40.5000      720
  40.5150      718
  40.5300      723
  40.5450      727
  40.5600      719
  40.5750      708
  40.5900      696
  40.6050      678
  40.6200      697
  40.6350      696
  40.6500      684
  40.6650      731
  40.6800      676
  40.6950      695
  40.7100      697
  40.7250      743
  40.7400      696
  40.7550      704
  40.7700      702
  40.7850      739
  40.8000      737
  40.8150      720
  40.8300      730
  40.8450      761
  40.8600      736
  40.8750      745
  40.8900      734
  40.9050      707
  40.9200      696
  40.9350      736
  40.9500      732
  40.9650      748
  40.9800      701
  40.9950      706
  41.0100      742
  41.0250      714
  41.0400      668
  41.0550      701
  41.0700      710
  41.0850      707
  41.1000      735
  41.1150      713
  41.1300      725
  41.1450      648
  41.1600      656
  41.1750      702
  41.1900      664
  41.2050      625
  41.2200      671
  41.2350      707
  41.2500      687
  41.2650      676
  41.2800      655
  41.2950      647
  41.3100      664
  41.3250      709
  41.3400      681
  41.3550      628
  41.3700      660
  41.3850      682
  41.4000      643
  41.4150      658
  41.4300      638
  41.4450      654
  41.4600      668
  41.4750      677
  41.4900      693
  41.5050      626
  41.5200      636
  41.5350      651
  41.5500      663
  41.5650      661
  41.5800      660
  41.5950      663
  41.6100      673
  41.6250      651
  41.6400      669
  41.6550      683
  41.6700      682
  41.6850      655
  41.7000      670
  41.7150      656
  41.7300      655
  41.7450      655
  41.7600      658
  41.7750      647
  41.7900      636
  41.8050      651
  41.8200      654
  41.8350      663
  41.8500      676
  41.8650      647
  41.8800      642
  41.8950      626
  41.9100      627
  41.9250      701
  41.9400      677
  41.9550      631
  41.9700      631
  41.9850      676
  42.0000      653
  42.0150      649
  42.0300      638
  42.0450      651
  42.0600      649
  42.0750      654
  42.0900      631
  42.1050      651
  42.1200      653
  42.1350      636
  42.1500      637
  42.1650      638
  42.1800      665
  42.1950      652
  42.2100      615
  42.2250      622
  42.2400      609
  42.2550      647
  42.2700      667
  42.2850      627
  42.3000      598
  42.3150      619
  42.3300      658
  42.3450      622
  42.3600      651
  42.3750      602
  42.3900      638
  42.4050      702
  42.4200      656
  42.4350      667
  42.4500      684
  42.4650      617
  42.4800      633
  42.4950      647
  42.5100      632
  42.5250      610
  42.5400      655
  42.5550      654
  42.5700      645
  42.5850      665
  42.6000      661
  42.6150      633
  42.6300      630
  42.6450      661
  42.6600      641
  42.6750      611
  42.6900      605
  42.7050      670
  42.7200      624
  42.7350      620
  42.7500      584
  42.7650      618
  42.7800      606
  42.7950      642
  42.8100      665
  42.8250      626
  42.8400      621
  42.8550      655
  42.8700      630
  42.8850      642
  42.9000      626
  42.9150      638
  42.9300      690
  42.9450      680
  42.9600      650
  42.9750      661
  42.9900      644
  43.0050      642
  43.0200      657
  43.0350      665
  43.0500      634
  43.0650      672
  43.0800      700
  43.0950      724
  43.1100      694
  43.1250      635
  43.1400      680
  43.1550      692
  43.1700      696
  43.1850      705
  43.2000      713
  43.2150      712
  43.2300      711
  43.2450      698
  43.2600      736
  43.2750      806
  43.2900      811
  43.3050      762
  43.3200      772
  43.3350      762
  43.3500      782
  43.3650      752
  43.3800      748
  43.3950      762
  43.4100      733
  43.4250      693
  43.4400      765
  43.4550      759
  43.4700      718
  43.4850      668
  43.5000      687
  43.5150      719
  43.5300      710
  43.5450      678
  43.5600      671
  43.5750      674
  43.5900      654
  43.6050      657
  43.6200      638
  43.6350      663
  43.6500      647
  43.6650      611
  43.6800      606
  43.6950      645
  43.7100      631
  43.7250      634
  43.7400      652
  43.7550      629
  43.7700      638
  43.7850      636
  43.8000      619
  43.8150      644
  43.8300      665
  43.8450      648
  43.8600      634
  43.8750      633
  43.8900      615
  43.9050      647
  43.9200      625
  43.9350      635
  43.9500      620
  43.9650      631
  43.9800      602
  43.9950      604
  44.0100      640
  44.0250      639
  44.0400      615
  44.0550      627
  44.0700      662
  44.0850      609
  44.1000      615
  44.1150      602
  44.1300      574
  44.1450      633
  44.1600      622
  44.1750      628
  44.1900      608
  44.2050      648
  44.2200      626
  44.2350      570
  44.2500      584
  44.2650      573
  44.2800      619
  44.2950      630
  44.3100      629
  44.3250      600
  44.3400      613
  44.3550      608
  44.3700      602
  44.3850      608
  44.4000      626
  44.4150      650
  44.4300      579
  44.4450      616
  44.4600      604
  44.4750      581
  44.4900      586
  44.5050      574
  44.5200      591
  44.5350      601
  44.5500      565
  44.5650      564
  44.5800      563
  44.5950      557
  44.6100      580
  44.6250      580
  44.6400      540
  44.6550      565
  44.6700      598
  44.6850      605
  44.7000      593
  44.7150      579
  44.7300      573
  44.7450      591
  44.7600      572
  44.7750      625
  44.7900      581
  44.8050      585
  44.8200      558
  44.8350      576
  44.8500      560
  44.8650      571
  44.8800      580
  44.8950      531
  44.9100      578
  44.9250      590
  44.9400      559
  44.9550      554
  44.9700      544
  44.9850      589
  45.0000      576
  45.0150      566
  45.0300      567
  45.0450      557
  45.0600      556
  45.0750      554
  45.0900      556
  45.1050      528
  45.1200      547
  45.1350      530
  45.1500      554
  45.1650      523
  45.1800      539
  45.1950      526
  45.2100      516
  45.2250      530
  45.2400      534
  45.2550      586
  45.2700      567
  45.2850      572
  45.3000      560
  45.3150      520
  45.3300      542
  45.3450      564
  45.3600      507
  45.3750      537
  45.3900      538
  45.4050      522
  45.4200      525
  45.4350      534
  45.4500      539
  45.4650      577
  45.4800      561
  45.4950      578
  45.5100      587
  45.5250      569
  45.5400      574
  45.5550      553
  45.5700      577
  45.5850      543
  45.6000      526
  45.6150      534
  45.6300      524
  45.6450      537
  45.6600      523
  45.6750      514
  45.6900      521
  45.7050      522
  45.7200      510
  45.7350      537
  45.7500      550
  45.7650      506
  45.7800      539
  45.7950      515
  45.8100      512
  45.8250      537
  45.8400      519
  45.8550      511
  45.8700      524
  45.8850      502
  45.9000      484
  45.9150      502
  45.9300      512
  45.9450      500
  45.9600      500
  45.9750      487
  45.9900      477
  46.0050      483
  46.0200      510
  46.0350      522
  46.0500      511
  46.0650      523
  46.0800      503
  46.0950      518
  46.1100      483
  46.1250      552
  46.1400      515
  46.1550      468
  46.1700      498
  46.1850      468
  46.2000      496
  46.2150      487
  46.2300      453
  46.2450      536
  46.2600      504
  46.2750      487
  46.2900      513
  46.3050      506
  46.3200      485
  46.3350      451
  46.3500      491
  46.3650      504
  46.3800      501
  46.3950      473
  46.4100      496
  46.4250      498
  46.4400      502
  46.4550      542
  46.4700      489
  46.4850      518
  46.5000      481
  46.5150      478
  46.5300      461
  46.5450      543
  46.5600      524
  46.5750      470
  46.5900      504
  46.6050      496
  46.6200      491
  46.6350      507
  46.6500      509
  46.6650      455
  46.6800      481
  46.6950      459
  46.7100      494
  46.7250      488
  46.7400      488
  46.7550      488
  46.7700      500
  46.7850      494
  46.8000      476
  46.8150      476
  46.8300      447
  46.8450      475
  46.8600      489
  46.8750      478
  46.8900      497
  46.9050      498
  46.9200      438
  46.9350      458
  46.9500      482
  46.9650      485
  46.9800      475
  46.9950      515
  47.0100      483
  47.0250      474
  47.0400      494
  47.0550      455
  47.0700      475
  47.0850      455
  47.1000      498
  47.1150      481
  47.1300      463
  47.1450      485
  47.1600      500
  47.1750      480
  47.1900      495
  47.2050      501
  47.2200      474
  47.2350      497
  47.2500      508
  47.2650      472
  47.2800      510
  47.2950      509
  47.3100      492
  47.3250      478
  47.3400      483
  47.3550      494
  47.3700      503
  47.3850      496
  47.4000      449
  47.4150      472
  47.4300      493
  47.4450      478
  47.4600      506
  47.4750      516
  47.4900      481
  47.5050      471
  47.5200      464
  47.5350      455
  47.5500      497
  47.5650      502
  47.5800      501
  47.5950      516
  47.6100      495
  47.6250      507
  47.6400      494
  47.6550      487
  47.6700      496
  47.6850      482
  47.7000      491
  47.7150      468
  47.7300      484
  47.7450      481
  47.7600      452
  47.7750      468
  47.7900      447
  47.8050      476
  47.8200      480
  47.8350      458
  47.8500      473
  47.8650      466
  47.8800      473
  47.8950      499
  47.9100      489
  47.9250      495
  47.9400      483
  47.9550      513
  47.9700      504
  47.9850      457
  48.0000      404
  48.0150      458
  48.0300      467
  48.0450      438
  48.0600      474
  48.0750      459
  48.0900      453
  48.1050      507
  48.1200      450
  48.1350      422
  48.1500      476
  48.1650      489
  48.1800      435
  48.1950      464
  48.2100      466
  48.2250      455
  48.2400      452
  48.2550      460
  48.2700      465
  48.2850      442
  48.3000      451
  48.3150      483
  48.3300      442
  48.3450      447
  48.3600      454
  48.3750      422
  48.3900      424
  48.4050      428
  48.4200      457
  48.4350      454
  48.4500      453
  48.4650      448
  48.4800      474
  48.4950      483
  48.5100      470
  48.5250      441
  48.5400      454
  48.5550      449
  48.5700      448
  48.5850      448
  48.6000      489
  48.6150      448
  48.6300      468
  48.6450      461
  48.6600      430
  48.6750      442
  48.6900      490
  48.7050      481
  48.7200      470
  48.7350      458
  48.7500      460
  48.7650      466
  48.7800      447
  48.7950      489
  48.8100      434
  48.8250      482
  48.8400      474
  48.8550      472
  48.8700      460
  48.8850      472
  48.9000      471
  48.9150      446
  48.9300      464
  48.9450      458
  48.9600      442
  48.9750      438
  48.9900      438
  49.0050      458
  49.0200      462
  49.0350      428
  49.0500      438
  49.0650      480
  49.0800      495
  49.0950      462
  49.1100      461
  49.1250      438
  49.1400      432
  49.1550      442
  49.1700      450
  49.1850      480
  49.2000      505
  49.2150      491
  49.2300      465
  49.2450      454
  49.2600      468
  49.2750      460
  49.2900      462
  49.3050      455
  49.3200      465
  49.3350      454
  49.3500      489
  49.3650      486
  49.3800      485
  49.3950      487
  49.4100      495
  49.4250      468
  49.4400      467
  49.4550      464
  49.4700      457
  49.4850      445
  49.5000      494
  49.5150      471
  49.5300      452
  49.5450      492
  49.5600      465
  49.5750      452
  49.5900      463
  49.6050      467
  49.6200      444
  49.6350      481
  49.6500      455
  49.6650      451
  49.6800      484
  49.6950      480
  49.7100      495
  49.7250      525
  49.7400      497
  49.7550      453
  49.7700      454
  49.7850      461
  49.8000      447
  49.8150      458
  49.8300      496
  49.8450      471
  49.8600      450
  49.8750      448
  49.8900      461
  49.9050      451
  49.9200      476
  49.9350      460
  49.9500      479
  49.9650      419
  49.9800      457
  49.9950      453
  50.0100      490
  50.0250      461
  50.0400      508
  50.0550      466
  50.0700      460
  50.0850      436
  50.1000      480
  50.1150      473
  50.1300      452
  50.1450      447
  50.1600      447
  50.1750      479
  50.1900      494
  50.2050      490
  50.2200      474
  50.2350      461
  50.2500      473
  50.2650      455
  50.2800      463
  50.2950      448
  50.3100      493
  50.3250      460
  50.3400      441
  50.3550      461
  50.3700      483
  50.3850      460
  50.4000      460
  50.4150      457
  50.4300      447
  50.4450      465
  50.4600      451
  50.4750      497
  50.4900      484
  50.5050      462
  50.5200      490
  50.5350      483
  50.5500      464
  50.5650      474
  50.5800      468
  50.5950      491
  50.6100      471
  50.6250      481
  50.6400      459
  50.6550      484
  50.6700      470
  50.6850      469
  50.7000      486
  50.7150      467
  50.7300      449
  50.7450      485
  50.7600      475
  50.7750      475
  50.7900      452
  50.8050      508
  50.8200      484
  50.8350      483
  50.8500      468
  50.8650      516
  50.8800      500
  50.8950      472
  50.9100      499
  50.9250      531
  50.9400      495
  50.9550      502
  50.9700      494
  50.9850      487
  51.0000      492
  51.0150      492
  51.0300      499
  51.0450      500
  51.0600      488
  51.0750      486
  51.0900      492
  51.1050      481
  51.1200      500
  51.1350      487
  51.1500      500
  51.1650      513
  51.1800      537
  51.1950      522
  51.2100      483
  51.2250      493
  51.2400      510
  51.2550      509
  51.2700      485
  51.2850      482
  51.3000      502
  51.3150      502
  51.3300      474
  51.3450      511
  51.3600      479
  51.3750      527
  51.3900      530
  51.4050      503
  51.4200      497
  51.4350      499
  51.4500      472
  51.4650      524
  51.4800      523
  51.4950      524
  51.5100      490
  51.5250      528
  51.5400      544
  51.5550      552
  51.5700      486
  51.5850      503
  51.6000      520
  51.6150      552
  51.6300      557
  51.6450      581
  51.6600      569
  51.6750      582
  51.6900      585
  51.7050      560
  51.7200      534
  51.7350      561
  51.7500      576
  51.7650      538
  51.7800      559
  51.7950      609
  51.8100      602
  51.8250      565
  51.8400      605
  51.8550      560
  51.8700      597
  51.8850      562
  51.9000      577
  51.9150      563
  51.9300      557
  51.9450      545
  51.9600      609
  51.9750      529
  51.9900      588
  52.0050      542
  52.0200      558
  52.0350      554
  52.0500      564
  52.0650      529
  52.0800      552
  52.0950      547
  52.1100      512
  52.1250      539
  52.1400      542
  52.1550      529
  52.1700      541
  52.1850      482
  52.2000      481
  52.2150      529
  52.2300      495
  52.2450      515
  52.2600      484
  52.2750      507
  52.2900      514
  52.3050      513
  52.3200      525
  52.3350      503
  52.3500      519
  52.3650      515
  52.3800      483
  52.3950      526
  52.4100      503
  52.4250      486
  52.4400      494
  52.4550      464
  52.4700      490
  52.4850      509
  52.5000      486
  52.5150      481
  52.5300      509
  52.5450      470
  52.5600      467
  52.5750      455
  52.5900      512
  52.6050      482
  52.6200      524
  52.6350      493
  52.6500      479
  52.6650      466
  52.6800      508
  52.6950      533
  52.7100      468
  52.7250      456
  52.7400      436
  52.7550      498
  52.7700      497
  52.7850      485
  52.8000      502
  52.8150      496
  52.8300      510
  52.8450      496
  52.8600      479
  52.8750      489
  52.8900      518
  52.9050      483
  52.9200      463
  52.9350      476
  52.9500      463
  52.9650      460
  52.9800      485
  52.9950      501
  53.0100      505
  53.0250      468
  53.0400      476
  53.0550      496
  53.0700      485
  53.0850      492
  53.1000      479
  53.1150      483
  53.1300      493
  53.1450      456
  53.1600      497
  53.1750      499
  53.1900      460
  53.2050      453
  53.2200      464
  53.2350      489
  53.2500      478
  53.2650      471
  53.2800      483
  53.2950      503
  53.3100      476
  53.3250      476
  53.3400      470
  53.3550      478
  53.3700      483
  53.3850      459
  53.4000      479
  53.4150      485
  53.4300      478
  53.4450      450
  53.4600      463
  53.4750      496
  53.4900      486
  53.5050      470
  53.5200      499
  53.5350      478
  53.5500      470
  53.5650      521
  53.5800      541
  53.5950      526
  53.6100      521
  53.6250      484
  53.6400      472
  53.6550      488
  53.6700      497
  53.6850      477
  53.7000      464
  53.7150      489
  53.7300      479
  53.7450      487
  53.7600      508
  53.7750      459
  53.7900      482
  53.8050      474
  53.8200      516
  53.8350      496
  53.8500      485
  53.8650      477
  53.8800      470
  53.8950      484
  53.9100      513
  53.9250      500
  53.9400      499
  53.9550      490
  53.9700      476
  53.9850      483
  54.0000      489
  54.0150      503
  54.0300      487
  54.0450      481
  54.0600      469
  54.0750      459
  54.0900      465
  54.1050      489
  54.1200      494
  54.1350      484
  54.1500      491
  54.1650      477
  54.1800      471
  54.1950      488
  54.2100      458
  54.2250      490
  54.2400      511
  54.2550      512
  54.2700      499
  54.2850      526
  54.3000      507
  54.3150      442
  54.3300      483
  54.3450      441
  54.3600      453
  54.3750      456
  54.3900      444
  54.4050      470
  54.4200      439
  54.4350      463
  54.4500      481
  54.4650      467
  54.4800      442
  54.4950      434
  54.5100      463
  54.5250      490
  54.5400      431
  54.5550      478
  54.5700      465
  54.5850      457
  54.6000      467
  54.6150      481
  54.6300      471
  54.6450      484
  54.6600      457
  54.6750      484
  54.6900      489
  54.7050      491
  54.7200      488
  54.7350      480
  54.7500      462
  54.7650      492
  54.7800      531
  54.7950      516
  54.8100      494
  54.8250      477
  54.8400      432
  54.8550      456
  54.8700      489
  54.8850      461
  54.9000      430
  54.9150      436
  54.9300      471
  54.9450      505
  54.9600      491
  54.9750      452
  54.9900      461
  55.0050      502
  55.0200      455
  55.0350      485
  55.0500      456
  55.0650      465
  55.0800      446
  55.0950      470
  55.1100      439
  55.1250      435
  55.1400      483
  55.1550      468
  55.1700      469
  55.1850      448
  55.2000      448
  55.2150      491
  55.2300      473
  55.2450      486
  55.2600      452
  55.2750      463
  55.2900      453
  55.3050      447
  55.3200      448
  55.3350      468
  55.3500      452
  55.3650      457
  55.3800      455
  55.3950      452
  55.4100      452
  55.4250      442
  55.4400      433
  55.4550      493
  55.4700      430
  55.4850      439
  55.5000      454
  55.5150      442
  55.5300      446
  55.5450      448
  55.5600      452
  55.5750      436
  55.5900      458
  55.6050      452
  55.6200      474
  55.6350      454
  55.6500      462
  55.6650      431
  55.6800      462
  55.6950      471
  55.7100      456
  55.7250      418
  55.7400      432
  55.7550      457
  55.7700      502
  55.7850      476
  55.8000      434
  55.8150      464
  55.8300      490
  55.8450      492
  55.8600      452
  55.8750      471
  55.8900      477
  55.9050      454
  55.9200      454
  55.9350      453
  55.9500      462
  55.9650      492
  55.9800      471
  55.9950      448
  56.0100      446
  56.0250      433
  56.0400      458
  56.0550      484
  56.0700      437
  56.0850      480
  56.1000      473
  56.1150      442
  56.1300      447
  56.1450      460
  56.1600      438
  56.1750      455
  56.1900      446
  56.2050      438
  56.2200      455
  56.2350      438
  56.2500      448
  56.2650      405
  56.2800      442
  56.2950      442
  56.3100      432
  56.3250      463
  56.3400      465
  56.3550      478
  56.3700      444
  56.3850      435
  56.4000      427
  56.4150      426
  56.4300      441
  56.4450      431
  56.4600      432
  56.4750      434
  56.4900      433
  56.5050      436
  56.5200      466
  56.5350      456
  56.5500      434
  56.5650      441
  56.5800      471
  56.5950      460
  56.6100      416
  56.6250      413
  56.6400      455
  56.6550      446
  56.6700      470
  56.6850      481
  56.7000      453
  56.7150      463
  56.7300      450
  56.7450      440
  56.7600      406
  56.7750      431
  56.7900      435
  56.8050      435
  56.8200      472
  56.8350      431
  56.8500      421
  56.8650      470
  56.8800      462
  56.8950      457
  56.9100      454
  56.9250      408
  56.9400      384
  56.9550      433
  56.9700      434
  56.9850      456
  57.0000      435
  57.0150      447
  57.0300      441
  57.0450      418
  57.0600      441
  57.0750      462
  57.0900      420
  57.1050      425
  57.1200      443
  57.1350      416
  57.1500      427
  57.1650      441
  57.1800      417
  57.1950      429
  57.2100      425
  57.2250      421
  57.2400      425
  57.2550      442
  57.2700      420
  57.2850      417
  57.3000      431
  57.3150      416
  57.3300      416
  57.3450      448
  57.3600      438
  57.3750      427
  57.3900      393
  57.4050      433
  57.4200      463
  57.4350      444
  57.4500      414
  57.4650      416
  57.4800      418
  57.4950      408
  57.5100      424
  57.5250      410
  57.5400      430
  57.5550      415
  57.5700      437
  57.5850      452
  57.6000      451
  57.6150      424
  57.6300      416
  57.6450      423
  57.6600      421
  57.6750      426
  57.6900      407
  57.7050      421
  57.7200      454
  57.7350      440
  57.7500      426
  57.7650      448
  57.7800      425
  57.7950      411
  57.8100      444
  57.8250      451
  57.8400      413
  57.8550      433
  57.8700      432
  57.8850      437
  57.9000      430
  57.9150      447
  57.9300      411
  57.9450      420
  57.9600      435
  57.9750      417
  57.9900      415
  58.0050      397
  58.0200      397
  58.0350      429
  58.0500      397
  58.0650      395
  58.0800      406
  58.0950      430
  58.1100      421
  58.1250      407
  58.1400      410
  58.1550      424
  58.1700      429
  58.1850      376
  58.2000      391
  58.2150      403
  58.2300      424
  58.2450      411
  58.2600      428
  58.2750      442
  58.2900      430
  58.3050      406
  58.3200      412
  58.3350      421
  58.3500      378
  58.3650      403
  58.3800      417
  58.3950      392
  58.4100      417
  58.4250      411
  58.4400      380
  58.4550      427
  58.4700      431
  58.4850      413
  58.5000      434
  58.5150      412
  58.5300      412
  58.5450      408
  58.5600      387
  58.5750      410
  58.5900      370
  58.6050      419
  58.6200      428
  58.6350      425
  58.6500      414
  58.6650      442
  58.6800      429
  58.6950      420
  58.7100      404
  58.7250      397
  58.7400      391
  58.7550      398
  58.7700      411
  58.7850      392
  58.8000      399
  58.8150      419
  58.8300      401
  58.8450      399
  58.8600      414
  58.8750      389
  58.8900      373
  58.9050      415
  58.9200      420
  58.9350      440
  58.9500      415
  58.9650      406
  58.9800      402
  58.9950      398
  59.0100      438
  59.0250      448
  59.0400      416
  59.0550      412
  59.0700      431
  59.0850      415
  59.1000      412
  59.1150      425
  59.1300      422
  59.1450      475
  59.1600      412
  59.1750      411
  59.1900      410
  59.2050      403
  59.2200      381
  59.2350      393
  59.2500      393
  59.2650      405
  59.2800      407
  59.2950      405
  59.3100      431
  59.3250      419
  59.3400      417
  59.3550      422
  59.3700      398
  59.3850      409
  59.4000      409
  59.4150      419
  59.4300      434
  59.4450      407
  59.4600      424
  59.4750      416
  59.4900      430
  59.5050      447
  59.5200      386
  59.5350      395
  59.5500      424
  59.5650      407
  59.5800      399
  59.5950      378
  59.6100      404
  59.6250      405
  59.6400      427
  59.6550      427
  59.6700      423
  59.6850      424
  59.7000      440
  59.7150      428
  59.7300      423
  59.7450      380
  59.7600      377
  59.7750      369
  59.7900      422
  59.8050      401
  59.8200      393
  59.8350      355
  59.8500      367
  59.8650      406
  59.8800      412
  59.8950      400
  59.9100      400
  59.9250      424
  59.9400      383
  59.9550      425
  59.9700      412
  59.9850      398
  60.0000      405
  60.0150      389
  60.0300      392
  60.0450      397
  60.0600      405
  60.0750      399
  60.0900      393
  60.1050      371
  60.1200      376
  60.1350      412
  60.1500      395
  60.1650      379
  60.1800      383
  60.1950      396
  60.2100      380
  60.2250      400
  60.2400      381
  60.2550      374
  60.2700      380
  60.2850      398
  60.3000      400
  60.3150      408
  60.3300      393
  60.3450      403
  60.3600      388
  60.3750      383
  60.3900      401
  60.4050      390
  60.4200      356
  60.4350      377
  60.4500      415
  60.4650      384
  60.4800      394
  60.4950      360
  60.5100      410
  60.5250      410
  60.5400      410
  60.5550      395
  60.5700      378
  60.5850      374
  60.6000      385
  60.6150      354
  60.6300      367
  60.6450      386
  60.6600      380
  60.6750      366
  60.6900      366
  60.7050      370
  60.7200      374
  60.7350      359
  60.7500      380
  60.7650      365
  60.7800      387
  60.7950      369
  60.8100      368
  60.8250      382
  60.8400      358
  60.8550      374
  60.8700      385
  60.8850      372
  60.9000      361
  60.9150      365
  60.9300      363
  60.9450      361
  60.9600      377
  60.9750      378
  60.9900      395
  61.0050      376
  61.0200      402
  61.0350      387
  61.0500      384
  61.0650      402
  61.0800      375
  61.0950      360
  61.1100      362
  61.1250      342
  61.1400      363
  61.1550      389
  61.1700      359
  61.1850      354
  61.2000      357
  61.2150      370
  61.2300      372
  61.2450      370
  61.2600      340
  61.2750      348
  61.2900      366
  61.3050      379
  61.3200      372
  61.3350      351
  61.3500      398
  61.3650      397
  61.3800      368
  61.3950      374
  61.4100      363
  61.4250      337
  61.4400      373
  61.4550      363
  61.4700      369
  61.4850      380
  61.5000      390
  61.5150      396
  61.5300      365
  61.5450      369
  61.5600      370
  61.5750      371
  61.5900      338
  61.6050      343
  61.6200      353
  61.6350      327
  61.6500      362
  61.6650      395
  61.6800      357
  61.6950      390
  61.7100      340
  61.7250      338
  61.7400      376
  61.7550      379
  61.7700      361
