1.309277344000000085e+03;4.193988769999999931e+03
1.308213866999999937e+03;4.215326172000000042e+03
1.307150390999999900e+03;4.278479003999999804e+03
1.306087890999999900e+03;4.218372559000000365e+03
1.305024413999999979e+03;4.215155273000000307e+03
1.303959961000000021e+03;4.183511230000000069e+03
1.302896484000000100e+03;4.173195800999999847e+03
1.301832030999999915e+03;4.231554199000000153e+03
1.300767577999999958e+03;4.136001952999999958e+03
1.299703125000000000e+03;4.113865233999999873e+03
1.298637694999999894e+03;4.115401855000000069e+03
1.297573241999999937e+03;4.116937012000000323e+03
1.296507812999999942e+03;4.153954590000000280e+03
1.295442383000000063e+03;4.110543456999999762e+03
1.294376952999999958e+03;4.142816894999999931e+03
1.293310547000000042e+03;3.988309569999999894e+03
1.292244140999999900e+03;4.034775391000000127e+03
1.291177734000000100e+03;4.067042969000000085e+03
1.290111327999999958e+03;4.000062743999999839e+03
1.289044922000000042e+03;3.970905029000000013e+03
1.287977538999999979e+03;3.899246826000000056e+03
1.286910155999999915e+03;3.938596923999999944e+03
1.285842773000000079e+03;4.041671631000000161e+03
1.284775390999999900e+03;4.012526366999999937e+03
1.283708008000000063e+03;3.945635253999999804e+03
1.282639648000000079e+03;3.885848876999999902e+03
1.281571288999999979e+03;3.868545654000000013e+03
1.280502930000000106e+03;3.945584472999999889e+03
1.279433594000000085e+03;3.716063477000000148e+03
1.278365234000000100e+03;3.811960204999999860e+03
1.277295898000000079e+03;3.848893798999999944e+03
1.276226562999999942e+03;3.805691650000000209e+03
1.275156250000000000e+03;3.736590819999999894e+03
1.274086913999999979e+03;3.740538329999999860e+03
1.273016601999999921e+03;3.793938964999999826e+03
1.271946288999999979e+03;3.701335938000000169e+03
1.270875976999999921e+03;3.681745849999999791e+03
1.269805663999999979e+03;3.645688477000000148e+03
1.268734375000000000e+03;3.574348633000000063e+03
1.267663086000000021e+03;3.679483397999999852e+03
1.266591797000000042e+03;3.761053222999999889e+03
1.265520508000000063e+03;3.680325439000000188e+03
1.264448241999999937e+03;3.507935058999999910e+03
1.263375976999999921e+03;3.542474608999999873e+03
1.262304687999999942e+03;3.584050048999999944e+03
1.261231444999999894e+03;3.609159912000000077e+03
1.260159180000000106e+03;3.521495849999999791e+03
1.259085937999999942e+03;3.600628417999999783e+03
1.258012694999999894e+03;3.447249756000000161e+03
1.256939452999999958e+03;3.573319579999999860e+03
1.255866211000000021e+03;3.445829102000000148e+03
1.254791991999999937e+03;3.391141602000000148e+03
1.253717773000000079e+03;3.465524170000000140e+03
1.252643555000000106e+03;3.593830077999999958e+03
1.251569336000000021e+03;3.332752930000000106e+03
1.250495116999999937e+03;3.451652832000000217e+03
1.249419922000000042e+03;3.340752930000000106e+03
1.248344726999999921e+03;3.347093506000000161e+03
1.247269530999999915e+03;3.259694092000000182e+03
1.246194336000000021e+03;3.371479980000000069e+03
1.245118163999999979e+03;3.382493652000000111e+03
1.244041991999999937e+03;3.306849854000000050e+03
1.242965819999999894e+03;3.280407714999999826e+03
1.241889648000000079e+03;3.272704102000000148e+03
1.240812500000000000e+03;3.309472900000000209e+03
1.239735351999999921e+03;3.247945067999999992e+03
1.238658202999999958e+03;3.195800537000000077e+03
1.237581055000000106e+03;3.143677246000000196e+03
1.236503905999999915e+03;3.229550292999999783e+03
1.235425780999999915e+03;3.280315917999999783e+03
1.234347655999999915e+03;3.244569092000000182e+03
1.233269530999999915e+03;3.239219238000000132e+03
1.232191405999999915e+03;3.170782470999999987e+03
1.231112305000000106e+03;3.142088134999999966e+03
1.230033202999999958e+03;3.265221435999999812e+03
1.228954101999999921e+03;3.301902587999999923e+03
1.227875000000000000e+03;3.175141602000000148e+03
1.226794922000000042e+03;3.218827881000000161e+03
1.225715819999999894e+03;3.131808837999999923e+03
1.224635741999999937e+03;3.103155761999999868e+03
1.223554687999999942e+03;3.219142334000000119e+03
1.222474609000000100e+03;3.080867675999999847e+03
1.221393555000000106e+03;3.131520996000000196e+03
1.220312500000000000e+03;3.018965332000000217e+03
1.219231444999999894e+03;3.034647949000000153e+03
1.218150390999999900e+03;3.078287108999999873e+03
1.217068359000000100e+03;3.175492432000000008e+03
1.215986327999999958e+03;3.097959472999999889e+03
1.214904297000000042e+03;3.067034912000000077e+03
1.213822265999999900e+03;3.096658935999999812e+03
1.212740234000000100e+03;3.005223389000000225e+03
1.211657226999999921e+03;2.972009032999999818e+03
1.210574219000000085e+03;2.992325683999999910e+03
1.209491211000000021e+03;2.968432860999999775e+03
1.208407226999999921e+03;2.988740967000000182e+03
1.207323241999999937e+03;3.034619384999999966e+03
1.206239258000000063e+03;2.947959229000000050e+03
1.205155273000000079e+03;3.026367675999999847e+03
1.204071288999999979e+03;2.965308105000000069e+03
1.202986327999999958e+03;3.055296143000000029e+03
1.201901366999999937e+03;2.954765625000000000e+03
1.200816405999999915e+03;3.107423095999999987e+03
1.199731444999999894e+03;3.113732665999999881e+03
1.198645508000000063e+03;2.959858886999999868e+03
1.197559569999999894e+03;2.991726807000000008e+03
1.196473633000000063e+03;2.895954834000000119e+03
1.195387694999999894e+03;2.888382324000000153e+03
1.194301758000000063e+03;3.043177490000000034e+03
1.193214844000000085e+03;2.926583008000000063e+03
1.192127930000000106e+03;2.986244628999999804e+03
1.191041015999999900e+03;2.872029053000000204e+03
1.189953125000000000e+03;2.927041016000000127e+03
1.188865234000000100e+03;2.963493163999999979e+03
1.187778319999999894e+03;2.944332030999999915e+03
1.186689452999999958e+03;2.860329345999999987e+03
1.185601562999999942e+03;2.857406493999999839e+03
1.184512694999999894e+03;2.868375243999999839e+03
1.183423827999999958e+03;2.883967772999999852e+03
1.182334961000000021e+03;2.922694579999999860e+03
1.181246094000000085e+03;2.878114746000000196e+03
1.180156250000000000e+03;2.970026855000000069e+03
1.179067383000000063e+03;2.971707519999999931e+03
1.177977538999999979e+03;2.885526366999999937e+03
1.176886719000000085e+03;2.889535155999999915e+03
1.175796875000000000e+03;2.921275634999999966e+03
1.174706055000000106e+03;2.860576172000000042e+03
1.173615234000000100e+03;2.901549071999999796e+03
1.172524413999999979e+03;2.829331055000000106e+03
1.171432616999999937e+03;2.904929688000000169e+03
1.170340819999999894e+03;2.920470459000000119e+03
1.169249023000000079e+03;2.864450683999999910e+03
1.168157226999999921e+03;2.919223144999999931e+03
1.167065430000000106e+03;2.847076415999999881e+03
1.165972655999999915e+03;2.735746337999999923e+03
1.164879883000000063e+03;2.753610839999999826e+03
1.163787109000000100e+03;2.884447509999999966e+03
1.162694336000000021e+03;2.888440673999999944e+03
1.161600586000000021e+03;2.834813720999999987e+03
1.160506836000000021e+03;2.854944579999999860e+03
1.159413086000000021e+03;2.879674071999999796e+03
1.158319336000000021e+03;2.837598633000000063e+03
1.157224609000000100e+03;2.800146240000000034e+03
1.156129883000000063e+03;2.831777344000000085e+03
1.155035155999999915e+03;2.865696288999999979e+03
1.153940430000000106e+03;2.796043212999999923e+03
1.152844726999999921e+03;2.790841308999999910e+03
1.151749023000000079e+03;2.730434569999999894e+03
1.150653319999999894e+03;2.821839355000000069e+03
1.149557616999999937e+03;2.828130858999999873e+03
1.148460937999999942e+03;2.767753905999999915e+03
1.147365234000000100e+03;2.916548339999999826e+03
1.146268555000000106e+03;2.738989501999999902e+03
1.145170898000000079e+03;2.770562500000000000e+03
1.144074219000000085e+03;2.735513672000000042e+03
1.142976562999999942e+03;2.661441894999999931e+03
1.141878905999999915e+03;2.807801758000000063e+03
1.140781250000000000e+03;2.763585204999999860e+03
1.139682616999999937e+03;2.772168701000000056e+03
1.138584961000000021e+03;2.746333008000000063e+03
1.137486327999999958e+03;2.835200683999999910e+03
1.136387694999999894e+03;2.855229003999999804e+03
1.135288086000000021e+03;2.717041016000000127e+03
1.134188476999999921e+03;2.707284667999999783e+03
1.133089844000000085e+03;2.782331542999999783e+03
1.131989258000000063e+03;2.745068115000000034e+03
1.130889648000000079e+03;2.723856933999999910e+03
1.129789062999999942e+03;2.750752441000000090e+03
1.128688476999999921e+03;2.800534912000000077e+03
1.127587890999999900e+03;2.770166748000000098e+03
1.126487305000000106e+03;2.778722655999999915e+03
1.125385741999999937e+03;2.718622558999999910e+03
1.124284180000000106e+03;2.804974121000000196e+03
1.123182616999999937e+03;2.722019530999999915e+03
1.122081055000000106e+03;2.721429442999999992e+03
1.120978515999999900e+03;2.702548095999999987e+03
1.119875976999999921e+03;2.745394287000000077e+03
1.118773437999999942e+03;2.719658935999999812e+03
1.117670898000000079e+03;2.709928954999999860e+03
1.116567383000000063e+03;2.741322753999999804e+03
1.115463866999999937e+03;2.633382324000000153e+03
1.114360351999999921e+03;2.701313477000000148e+03
1.113256836000000021e+03;2.700726563000000169e+03
1.112152344000000085e+03;2.741223633000000063e+03
1.111048827999999958e+03;2.685860595999999987e+03
1.109944336000000021e+03;2.698965087999999923e+03
1.108838866999999937e+03;2.737154297000000042e+03
1.107734375000000000e+03;2.647620360999999775e+03
1.106628905999999915e+03;2.740522704999999860e+03
1.105523437999999942e+03;2.730807860999999775e+03
1.104417969000000085e+03;2.753002685999999812e+03
1.103311523000000079e+03;2.613415527000000111e+03
1.102205077999999958e+03;2.656127685999999812e+03
1.101098633000000063e+03;2.673768310999999812e+03
1.099992187999999942e+03;2.625368407999999818e+03
1.098884765999999900e+03;2.711302246000000196e+03
1.097778319999999894e+03;2.667466797000000042e+03
1.096670898000000079e+03;2.678261962999999923e+03
1.095562500000000000e+03;2.761852050999999847e+03
1.094455077999999958e+03;2.786268310999999812e+03
1.093346680000000106e+03;2.699247314000000188e+03
1.092238280999999915e+03;2.712298339999999826e+03
1.091129883000000063e+03;2.702613280999999915e+03
1.090020508000000063e+03;2.649754394999999931e+03
1.088911133000000063e+03;2.685527099999999791e+03
1.087801758000000063e+03;2.689482422000000042e+03
1.086692383000000063e+03;2.654828368999999839e+03
1.085583008000000063e+03;2.667870360999999775e+03
1.084472655999999915e+03;2.674096191000000090e+03
1.083362305000000106e+03;2.680318847999999889e+03
1.082251952999999958e+03;2.666117188000000169e+03
1.081140625000000000e+03;2.690486816000000090e+03
1.080029297000000042e+03;2.710309326000000056e+03
1.078917969000000085e+03;2.687039550999999847e+03
1.077806640999999900e+03;2.489217040999999881e+03
1.076695312999999942e+03;2.624663574000000153e+03
1.075583008000000063e+03;2.710197509999999966e+03
1.074470702999999958e+03;2.696009032999999818e+03
1.073358398000000079e+03;2.715802490000000034e+03
1.072245116999999937e+03;2.651798339999999826e+03
1.071131836000000021e+03;2.630838866999999937e+03
1.070018555000000106e+03;2.587252930000000106e+03
1.068905273000000079e+03;2.566316650000000209e+03
1.067791991999999937e+03;2.595165527000000111e+03
1.066677734000000100e+03;2.542567139000000225e+03
1.065563476999999921e+03;2.657347900000000209e+03
1.064448241999999937e+03;2.557275634999999966e+03
1.063333984000000100e+03;2.660699219000000085e+03
1.062218750000000000e+03;2.623951904000000013e+03
1.061103515999999900e+03;2.560105712999999923e+03
1.059988280999999915e+03;2.564059814000000188e+03
1.058872069999999894e+03;2.534133057000000008e+03
1.057756836000000021e+03;2.538090576000000056e+03
1.056640625000000000e+03;2.496894287000000077e+03
1.055523437999999942e+03;2.654340087999999923e+03
1.054407226999999921e+03;2.504819336000000021e+03
1.053290038999999979e+03;2.486217772999999852e+03
1.052172851999999921e+03;2.605215576000000056e+03
1.051055663999999979e+03;2.611405761999999868e+03
1.049937500000000000e+03;2.615338134999999966e+03
1.048819336000000021e+03;2.626031006000000161e+03
1.047701172000000042e+03;2.647986816000000090e+03
1.046583008000000063e+03;2.482924805000000106e+03
1.045463866999999937e+03;2.493638915999999881e+03
1.044345702999999958e+03;2.544885985999999775e+03
1.043226562999999942e+03;2.503794189000000188e+03
1.042106444999999894e+03;2.516746826000000056e+03
1.040987305000000106e+03;2.581457764000000225e+03
1.039867187999999942e+03;2.569635741999999937e+03
1.038747069999999894e+03;2.575815673999999944e+03
1.037626952999999958e+03;2.570747069999999894e+03
1.036505859000000100e+03;2.579172118999999839e+03
1.035384765999999900e+03;2.551623290999999881e+03
1.034263672000000042e+03;2.544314941000000090e+03
1.033142577999999958e+03;2.541503662000000077e+03
1.032020508000000063e+03;2.484774413999999979e+03
1.030898437999999942e+03;2.461761962999999923e+03
1.029776366999999937e+03;2.458970214999999826e+03
1.028654297000000042e+03;2.451689209000000119e+03
1.027531250000000000e+03;2.484814696999999796e+03
1.026408202999999958e+03;2.446112792999999783e+03
1.025285155999999915e+03;2.463518798999999944e+03
1.024162109000000100e+03;2.478673584000000119e+03
1.023038086000000021e+03;2.480365722999999889e+03
1.021914063000000056e+03;2.468603759999999966e+03
1.020790038999999979e+03;2.519613037000000077e+03
1.019666016000000013e+03;2.371136962999999923e+03
1.018541016000000013e+03;2.433348144999999931e+03
1.017416016000000013e+03;2.385763672000000042e+03
1.016291016000000013e+03;2.452422606999999971e+03
1.015165038999999979e+03;2.536964844000000085e+03
1.014040038999999979e+03;2.505059082000000217e+03
1.012914063000000056e+03;2.372449951000000056e+03
1.011788086000000021e+03;2.336119141000000127e+03
1.010661132999999950e+03;2.519046386999999868e+03
1.009534179999999992e+03;2.384285400000000209e+03
1.008407227000000034e+03;2.388226317999999992e+03
1.007280272999999966e+03;2.398872558999999910e+03
1.006153320000000008e+03;2.431865479000000050e+03
1.005025391000000013e+03;2.404507079999999860e+03
1.003897461000000021e+03;2.359287354000000050e+03
1.002769531000000029e+03;2.443640868999999839e+03
1.001640625000000000e+03;2.331436768000000029e+03
1.000511718999999971e+03;2.429154540999999881e+03
9.993828130000000556e+02;2.357182373000000098e+03
9.982539060000000291e+02;2.312022704999999860e+03
9.971250000000000000e+02;2.362823485999999775e+03
9.959951170000000502e+02;2.411370849999999791e+03
9.948652339999999867e+02;2.381839844000000085e+03
9.937343750000000000e+02;2.363470214999999826e+03
9.926044920000000502e+02;2.396379883000000063e+03
9.914736329999999498e+02;2.509507324000000153e+03
9.903427729999999656e+02;2.444328856999999971e+03
9.892109380000000556e+02;2.419277587999999923e+03
9.880800779999999577e+02;2.441008300999999847e+03
9.869482420000000502e+02;2.402608397999999852e+03
9.858164060000000291e+02;2.368677733999999873e+03
9.846835939999999709e+02;2.419338623000000098e+03
9.835517579999999498e+02;2.374292969000000085e+03
9.824189450000000079e+02;2.389334472999999889e+03
9.812861329999999498e+02;2.402144530999999915e+03
9.801523439999999709e+02;2.528357910000000174e+03
9.790185549999999921e+02;2.347711425999999847e+03
9.778857420000000502e+02;2.440539307000000008e+03
9.767509770000000344e+02;2.333325928000000204e+03
9.756171880000000556e+02;2.297255371000000196e+03
9.744824220000000423e+02;2.467774170000000140e+03
9.733476560000000291e+02;2.327315185999999812e+03
9.722128910000000133e+02;2.366757079999999860e+03
9.710771479999999656e+02;2.421719238000000132e+03
9.699423829999999498e+02;2.472218018000000029e+03
9.688056639999999788e+02;2.376257813000000169e+03
9.676699220000000423e+02;2.304740967000000182e+03
9.665341799999999921e+02;2.375190917999999783e+03
9.653974610000000212e+02;2.350268066000000090e+03
9.642607420000000502e+02;2.396291503999999804e+03
9.631230470000000423e+02;2.395753173999999944e+03
9.619863279999999577e+02;2.392999022999999852e+03
9.608486329999999498e+02;2.436766113000000132e+03
9.597109380000000556e+02;2.478298339999999826e+03
9.585722660000000133e+02;2.342672118999999839e+03
9.574345700000000079e+02;2.461687743999999839e+03
9.562958979999999656e+02;2.403589599999999791e+03
9.551572270000000344e+02;2.299049316000000090e+03
9.540175779999999577e+02;2.488785889000000225e+03
9.528779299999999921e+02;2.452837645999999950e+03
9.517382810000000291e+02;2.531890868999999839e+03
9.505986329999999498e+02;2.414150634999999966e+03
9.494589839999999867e+02;2.364981201000000056e+03
9.483183589999999867e+02;2.337931395999999950e+03
9.471777339999999867e+02;2.372752930000000106e+03
9.460371089999999867e+02;2.460569092000000182e+03
9.448955079999999498e+02;2.411432616999999937e+03
9.437539060000000291e+02;2.421927979000000050e+03
9.426123049999999921e+02;2.430211182000000008e+03
9.414707029999999577e+02;2.414215819999999894e+03
9.403281250000000000e+02;2.424702636999999868e+03
9.391855470000000423e+02;2.507975586000000021e+03
9.380429689999999709e+02;2.379503173999999944e+03
9.369003910000000133e+02;2.372352050999999847e+03
9.357568360000000212e+02;2.471009520999999950e+03
9.346132810000000291e+02;2.430783691000000090e+03
9.334697270000000344e+02;2.403795165999999881e+03
9.323261720000000423e+02;2.368007813000000169e+03
9.311816410000000133e+02;2.343247558999999910e+03
9.300371089999999867e+02;2.459413817999999992e+03
9.288925779999999577e+02;2.430241211000000021e+03
9.277470700000000079e+02;2.473708251999999902e+03
9.266015630000000556e+02;2.396138428000000204e+03
9.254560549999999921e+02;2.503387694999999894e+03
9.243105470000000423e+02;2.487426514000000225e+03
9.231640630000000556e+02;2.445086425999999847e+03
9.220185549999999921e+02;2.552251220999999987e+03
9.208710939999999709e+02;2.472552246000000196e+03
9.197246089999999867e+02;2.533518066000000090e+03
9.185771479999999656e+02;2.515370116999999937e+03
9.174306639999999788e+02;2.492837402000000111e+03
9.162822270000000344e+02;2.487881592000000182e+03
9.151347660000000133e+02;2.579522461000000021e+03
9.139863279999999577e+02;2.572354003999999804e+03
9.128378910000000133e+02;2.523495849999999791e+03
9.116894529999999577e+02;2.448333496000000196e+03
9.105400389999999788e+02;2.528932616999999937e+03
9.093916020000000344e+02;2.607302490000000034e+03
9.082421880000000556e+02;2.440092529000000013e+03
9.070917970000000423e+02;2.527213623000000098e+03
9.059423829999999498e+02;2.594572998000000098e+03
9.047919920000000502e+02;2.626847655999999915e+03
9.036416020000000344e+02;2.525495116999999937e+03
9.024912110000000212e+02;2.529302001999999902e+03
9.013398439999999709e+02;2.480562011999999868e+03
9.001884770000000344e+02;2.628843018000000029e+03
8.990371089999999867e+02;2.569160155999999915e+03
8.978847660000000133e+02;2.601395264000000225e+03
8.967333979999999656e+02;2.627053467000000182e+03
8.955810549999999921e+02;2.611148682000000008e+03
8.944277339999999867e+02;2.523100097999999889e+03
8.932753910000000133e+02;2.531270508000000063e+03
8.921220700000000079e+02;2.530695557000000008e+03
8.909687500000000000e+02;2.534490479000000050e+03
8.898154299999999921e+02;2.525177001999999902e+03
8.886611329999999498e+02;2.579200928000000204e+03
8.875068360000000212e+02;2.635383545000000140e+03
8.863525389999999788e+02;2.560565185999999812e+03
8.851982420000000502e+02;2.605813964999999826e+03
8.840429689999999709e+02;2.627040527000000111e+03
8.828876950000000079e+02;2.687523192999999992e+03
8.817324220000000423e+02;2.569141356999999971e+03
8.805771479999999656e+02;2.590361327999999958e+03
8.794208979999999656e+02;2.567972412000000077e+03
8.782646479999999656e+02;2.602259277000000111e+03
8.771083979999999656e+02;2.560266845999999987e+03
8.759511720000000423e+02;2.638108397999999852e+03
8.747939450000000079e+02;2.541677490000000034e+03
8.736367189999999709e+02;2.456177733999999873e+03
8.724794920000000502e+02;2.568820557000000008e+03
8.713212889999999788e+02;2.544294189000000188e+03
8.701630860000000212e+02;2.476259277000000111e+03
8.690048829999999498e+02;2.480045897999999852e+03
8.678466799999999921e+02;2.536030272999999852e+03
8.666875000000000000e+02;2.435426025000000209e+03
8.655283200000000079e+02;2.415304688000000169e+03
8.643691410000000133e+02;2.516908446999999796e+03
8.632089839999999867e+02;2.483739501999999902e+03
8.620488279999999577e+02;2.435377930000000106e+03
8.608886720000000423e+02;2.365318115000000034e+03
8.597285160000000133e+02;2.455981933999999910e+03
8.585673829999999498e+02;2.327331542999999783e+03
8.574062500000000000e+02;2.311606689000000188e+03
8.562451170000000502e+02;2.400050292999999783e+03
8.550839839999999867e+02;2.386485352000000148e+03
8.539218750000000000e+02;2.325207275000000209e+03
8.527597660000000133e+02;2.413586670000000140e+03
8.515976560000000291e+02;2.378346680000000106e+03
8.504355470000000423e+02;2.431992188000000169e+03
8.492724610000000212e+02;2.320916748000000098e+03
8.481093750000000000e+02;2.318219970999999987e+03
8.469453130000000556e+02;2.339350829999999860e+03
8.457822270000000344e+02;2.395121094000000085e+03
8.446181639999999788e+02;2.333951415999999881e+03
8.434541020000000344e+02;2.445976074000000153e+03
8.422890630000000556e+02;2.350197020999999950e+03
8.411250000000000000e+02;2.328023682000000008e+03
8.399599610000000212e+02;2.362100829999999860e+03
8.387949220000000423e+02;2.303170165999999881e+03
8.376289060000000291e+02;2.339398925999999847e+03
8.364628910000000133e+02;2.278338623000000098e+03
8.352968750000000000e+02;2.308072998000000098e+03
8.341308589999999867e+02;2.316187011999999868e+03
8.329638670000000502e+02;2.352379150000000209e+03
8.317968750000000000e+02;2.343201904000000013e+03
8.306298829999999498e+02;2.454940673999999944e+03
8.294628910000000133e+02;2.346446288999999979e+03
8.282949220000000423e+02;2.397704345999999987e+03
8.271269529999999577e+02;2.323794922000000042e+03
8.259589839999999867e+02;2.353462645999999950e+03
8.247900389999999788e+02;2.268813477000000148e+03
8.236220700000000079e+02;2.363165038999999979e+03
8.224531250000000000e+02;2.390647217000000182e+03
8.212832029999999577e+02;2.303891845999999987e+03
8.201142579999999498e+02;2.344302733999999873e+03
8.189443360000000212e+02;2.324377196999999796e+03
8.177744139999999788e+02;2.343227538999999979e+03
8.166035160000000133e+02;2.381447753999999804e+03
8.154326170000000502e+02;2.380901610999999775e+03
8.142617189999999709e+02;2.376050780999999915e+03
8.130908200000000079e+02;2.390567626999999902e+03
8.119199220000000423e+02;2.413682616999999937e+03
8.107480470000000423e+02;2.415279297000000042e+03
8.095761720000000423e+02;2.337315917999999783e+03
8.084033200000000079e+02;2.386223633000000063e+03
8.072314450000000079e+02;2.329794922000000042e+03
8.060585939999999709e+02;2.367937743999999839e+03
8.048857420000000502e+02;2.333021483999999873e+03
8.037119139999999788e+02;2.394770996000000196e+03
8.025380860000000212e+02;2.353422363000000132e+03
8.013642579999999498e+02;2.393670654000000013e+03
8.001904299999999921e+02;2.311561279000000013e+03
7.990166020000000344e+02;2.345362792999999783e+03
7.978417970000000423e+02;2.424200194999999894e+03
7.966669920000000502e+02;2.348574219000000085e+03
7.954912110000000212e+02;2.369477295000000140e+03
7.943164060000000291e+02;2.360357178000000204e+03
7.931406250000000000e+02;2.447690917999999783e+03
7.919638670000000502e+02;2.378556884999999966e+03
7.907880860000000212e+02;2.401575439000000188e+03
7.896113279999999577e+02;2.392455566000000090e+03
7.884345700000000079e+02;2.359784423999999944e+03
7.872578130000000556e+02;2.346395996000000196e+03
7.860800779999999577e+02;2.380102050999999847e+03
7.849023439999999709e+02;2.356015136999999868e+03
7.837246089999999867e+02;2.329800048999999944e+03
7.825458979999999656e+02;2.363485839999999826e+03
7.813681639999999788e+02;2.437785889000000225e+03
7.801894529999999577e+02;2.435086425999999847e+03
7.790097660000000133e+02;2.434525391000000127e+03
7.778310549999999921e+02;2.506620116999999937e+03
7.766513670000000502e+02;2.414175537000000077e+03
7.754716799999999921e+02;2.447794189000000188e+03
7.742919920000000502e+02;2.395979003999999804e+03
7.731113279999999577e+02;2.497904785000000174e+03
7.719306639999999788e+02;2.529345946999999796e+03
7.707500000000000000e+02;2.513824707000000217e+03
7.695683589999999867e+02;2.470575194999999894e+03
7.683867189999999709e+02;2.465739501999999902e+03
7.672050779999999577e+02;2.535542969000000085e+03
7.660234380000000556e+02;2.562674071999999796e+03
7.648408200000000079e+02;2.598318604000000050e+03
7.636582029999999577e+02;2.533788086000000021e+03
7.624755860000000212e+02;2.563030761999999868e+03
7.612929689999999709e+02;2.675331055000000106e+03
7.601093750000000000e+02;2.610826904000000013e+03
7.589257810000000291e+02;2.514416503999999804e+03
7.577421880000000556e+02;2.624521240000000034e+03
7.565576170000000502e+02;2.609018555000000106e+03
7.553730470000000423e+02;2.642457030999999915e+03
7.541884770000000344e+02;2.578033935999999812e+03
7.530039060000000291e+02;2.573184814000000188e+03
7.518183589999999867e+02;2.668265136999999868e+03
7.506328130000000556e+02;2.623010498000000098e+03
7.494472660000000133e+02;2.686157714999999826e+03
7.482607420000000502e+02;2.700409180000000106e+03
7.470742189999999709e+02;2.670046631000000161e+03
7.458876950000000079e+02;2.716149657999999818e+03
7.447011720000000423e+02;2.700659180000000106e+03
7.435136720000000423e+02;2.740365233999999873e+03
7.423261720000000423e+02;2.701531981999999971e+03
7.411386720000000423e+02;2.758192383000000063e+03
7.399501950000000079e+02;2.799978027000000111e+03
7.387626950000000079e+02;2.829019775000000209e+03
7.375732420000000502e+02;2.847446777000000111e+03
7.363847660000000133e+02;2.848907470999999987e+03
7.351953130000000556e+02;2.744405272999999852e+03
7.340068360000000212e+02;2.779788329999999860e+03
7.328164060000000291e+02;2.817273192999999992e+03
7.316269529999999577e+02;2.890742188000000169e+03
7.304365229999999656e+02;2.943004150000000209e+03
7.292460939999999709e+02;2.838600097999999889e+03
7.280556639999999788e+02;2.886616942999999992e+03
7.268642579999999498e+02;2.898642577999999958e+03
7.256728520000000344e+02;2.938161621000000196e+03
7.244814450000000079e+02;2.895184082000000217e+03
7.232890630000000556e+02;2.852226317999999992e+03
7.220976560000000291e+02;2.864248047000000042e+03
7.209052729999999656e+02;2.880490479000000050e+03
7.197119139999999788e+02;2.793195313000000169e+03
7.185195310000000291e+02;2.845356444999999894e+03
7.173261720000000423e+02;2.838360595999999987e+03
7.161328130000000556e+02;2.854593018000000029e+03
7.149384770000000344e+02;2.910924805000000106e+03
7.137441410000000133e+02;2.859599365000000034e+03
7.125498049999999921e+02;2.858935547000000042e+03
7.113554689999999709e+02;2.902569579999999860e+03
7.101611329999999498e+02;2.863934814000000188e+03
7.089658200000000079e+02;2.844293701000000056e+03
7.077695310000000291e+02;2.837309082000000217e+03
7.065742189999999709e+02;2.771318604000000050e+03
7.053779299999999921e+02;2.835990967000000182e+03
7.041816410000000133e+02;2.877461913999999979e+03
7.029853520000000344e+02;3.043166991999999937e+03
7.017880860000000212e+02;2.951922852000000148e+03
7.005917970000000423e+02;2.942816405999999915e+03
6.993935549999999921e+02;2.927400634999999966e+03
6.981962889999999788e+02;2.937239990000000034e+03
6.969980470000000423e+02;3.041734618999999839e+03
6.957998049999999921e+02;3.110428222999999889e+03
6.946015630000000556e+02;2.983550292999999783e+03
6.934023439999999709e+02;3.144716553000000204e+03
6.922031250000000000e+02;3.202829345999999987e+03
6.910039060000000291e+02;3.160062011999999868e+03
6.898046880000000556e+02;3.138320313000000169e+03
6.886044920000000502e+02;3.110288086000000021e+03
6.874042970000000423e+02;3.040275878999999804e+03
6.862041020000000344e+02;3.058460449000000153e+03
6.850029299999999921e+02;2.891954102000000148e+03
6.838017579999999498e+02;2.952127441000000090e+03
6.826005860000000212e+02;2.861239258000000063e+03
6.813994139999999788e+02;2.822823241999999937e+03
6.801972660000000133e+02;2.845229248000000098e+03
6.789951170000000502e+02;2.716697020999999950e+03
6.777929689999999709e+02;2.682532227000000148e+03
6.765898439999999709e+02;2.681906981999999971e+03
6.753867189999999709e+02;2.574449219000000085e+03
6.741835939999999709e+02;2.504738280999999915e+03
6.729804689999999709e+02;2.468560058999999910e+03
6.717763670000000502e+02;2.501476807000000008e+03
6.705722660000000133e+02;2.496707764000000225e+03
6.693681639999999788e+02;2.577725342000000182e+03
6.681630860000000212e+02;2.462073730000000069e+03
6.669580079999999498e+02;2.428037842000000182e+03
6.657529299999999921e+02;2.375199951000000056e+03
6.645468750000000000e+02;2.355832275000000209e+03
6.633417970000000423e+02;2.388720214999999826e+03
6.621357420000000502e+02;2.398609375000000000e+03
6.609287110000000212e+02;2.412671386999999868e+03
6.597226560000000291e+02;2.405842772999999852e+03
6.585156250000000000e+02;2.415720214999999826e+03
6.573085939999999709e+02;2.390106689000000188e+03
6.561005860000000212e+02;2.433374022999999852e+03
6.548925779999999577e+02;2.357693115000000034e+03
6.536845700000000079e+02;2.378001709000000119e+03
6.524765630000000556e+02;2.402471435999999812e+03
6.512675779999999577e+02;2.339360106999999971e+03
6.500585939999999709e+02;2.459714110999999775e+03
6.488496089999999867e+02;2.394534423999999944e+03
6.476406250000000000e+02;2.364804932000000008e+03
6.464306639999999788e+02;2.364251709000000119e+03
6.452207029999999577e+02;2.428257813000000169e+03
6.440097660000000133e+02;2.479741211000000021e+03
6.427998049999999921e+02;2.410468750000000000e+03
6.415888670000000502e+02;2.407823485999999775e+03
6.403769529999999577e+02;2.482161376999999902e+03
6.391660160000000133e+02;2.406696045000000140e+03
6.379541020000000344e+02;2.472680663999999979e+03
6.367421880000000556e+02;2.480417969000000085e+03
6.355292970000000423e+02;2.498544922000000042e+03
6.343173829999999498e+02;2.458474365000000034e+03
6.331044920000000502e+02;2.459976074000000153e+03
6.318906250000000000e+02;2.604803222999999889e+03
6.306777339999999867e+02;2.635343261999999868e+03
6.294638670000000502e+02;2.611886962999999923e+03
6.282500000000000000e+02;2.627880615000000034e+03
6.270351560000000291e+02;2.608587157999999818e+03
6.258212889999999788e+02;2.632872558999999910e+03
6.246064450000000079e+02;2.609437743999999839e+03
6.233906250000000000e+02;2.561128662000000077e+03
6.221757810000000291e+02;2.616506836000000021e+03
6.209599610000000212e+02;2.622111327999999958e+03
6.197431639999999788e+02;2.636002196999999796e+03
6.185273439999999709e+02;2.651958008000000063e+03
6.173105470000000423e+02;2.578837891000000127e+03
6.160937500000000000e+02;2.661067139000000225e+03
6.148769529999999577e+02;2.677005371000000196e+03
6.136591799999999921e+02;2.659817383000000063e+03
6.124414060000000291e+02;2.607457275000000209e+03
6.112236329999999498e+02;2.633740722999999889e+03
6.100048829999999498e+02;2.581410644999999931e+03
6.087861329999999498e+02;2.527037354000000050e+03
6.075673829999999498e+02;2.485093993999999839e+03
6.063486329999999498e+02;2.538251220999999987e+03
6.051289060000000291e+02;2.473593018000000029e+03
6.039091799999999921e+02;2.640357910000000174e+03
6.026894529999999577e+02;2.534395264000000225e+03
6.014687500000000000e+02;2.606075194999999894e+03
6.002480470000000423e+02;2.611655761999999868e+03
5.990273439999999709e+02;2.646130126999999902e+03
5.978066410000000133e+02;2.542328613000000132e+03
5.965849610000000212e+02;2.675831055000000106e+03
5.953632810000000291e+02;2.520505615000000034e+03
5.941406250000000000e+02;2.548781738000000132e+03
5.929189450000000079e+02;2.634770264000000225e+03
5.916962889999999788e+02;2.607354491999999937e+03
5.904736329999999498e+02;2.549041748000000098e+03
5.892500000000000000e+02;2.628788086000000021e+03
5.880263670000000502e+02;2.654944579999999860e+03
5.868027339999999867e+02;2.691384520999999950e+03
5.855791020000000344e+02;2.721630858999999873e+03
5.843544920000000502e+02;2.725105712999999923e+03
5.831298829999999498e+02;2.856159180000000106e+03
5.819042970000000423e+02;2.752622069999999894e+03
5.806796880000000556e+02;2.770483886999999868e+03
5.794541020000000344e+02;2.833575439000000188e+03
5.782285160000000133e+02;2.867855469000000085e+03
5.770019529999999577e+02;2.836348633000000063e+03
5.757753910000000133e+02;2.874721191000000090e+03
5.745488279999999577e+02;2.964434082000000217e+03
5.733222660000000133e+02;2.906225829999999860e+03
5.720947270000000344e+02;2.903486084000000119e+03
5.708671880000000556e+02;2.978757324000000153e+03
5.696396479999999656e+02;3.148404053000000204e+03
5.684111329999999498e+02;3.231789307000000008e+03
5.671826170000000502e+02;3.286414550999999847e+03
5.659541020000000344e+02;3.297943358999999873e+03
5.647255860000000212e+02;3.379182860999999775e+03
5.634960939999999709e+02;3.355833983999999873e+03
5.622666020000000344e+02;3.459564941000000090e+03
5.610371089999999867e+02;3.509972167999999783e+03
5.598066410000000133e+02;3.595180420000000140e+03
5.585761720000000423e+02;3.778654297000000042e+03
5.573457029999999577e+02;4.256890625000000000e+03
5.561142579999999498e+02;5.140222168000000238e+03
5.548828130000000556e+02;6.647347655999999915e+03
5.536513670000000502e+02;7.208454590000000280e+03
5.524199220000000423e+02;6.762846190999999635e+03
5.511875000000000000e+02;5.589376952999999958e+03
5.499550779999999577e+02;5.044173827999999958e+03
5.487216799999999921e+02;4.906018554999999651e+03
5.474892579999999498e+02;4.829239746000000196e+03
5.462558589999999867e+02;5.034458496000000196e+03
5.450224610000000212e+02;5.076162108999999873e+03
5.437880860000000212e+02;5.162774902000000111e+03
5.425537110000000212e+02;5.437187012000000323e+03
5.413193360000000212e+02;5.488970215000000280e+03
5.400849610000000212e+02;5.638686034999999720e+03
5.388496089999999867e+02;5.486365722999999889e+03
5.376142579999999498e+02;5.480984375000000000e+03
5.363779299999999921e+02;5.440936034999999720e+03
5.351425779999999577e+02;5.386634277000000111e+03
5.339062500000000000e+02;5.167250000000000000e+03
5.326689450000000079e+02;5.102848632999999609e+03
5.314326170000000502e+02;4.832700195000000349e+03
5.301953130000000556e+02;4.805072266000000127e+03
5.289580079999999498e+02;4.518830565999999635e+03
5.277197270000000344e+02;4.383384766000000127e+03
5.264824220000000423e+02;4.044456298999999944e+03
5.252441410000000133e+02;3.917326415999999881e+03
5.240048829999999498e+02;3.741428467000000182e+03
5.227666020000000344e+02;3.561545897999999852e+03
5.215273439999999709e+02;3.501726563000000169e+03
5.202871089999999867e+02;3.368745849999999791e+03
5.190478520000000344e+02;3.304934814000000188e+03
5.178076170000000502e+02;3.186288086000000021e+03
5.165673829999999498e+02;3.173339844000000085e+03
5.153261720000000423e+02;2.959318358999999873e+03
5.140849610000000212e+02;2.997195313000000169e+03
5.128437500000000000e+02;2.955878417999999783e+03
5.116025389999999788e+02;2.993737548999999944e+03
5.103603519999999776e+02;2.986936768000000029e+03
5.091181639999999788e+02;2.903048584000000119e+03
5.078759769999999776e+02;2.902356444999999894e+03
5.066328129999999987e+02;2.871248779000000013e+03
5.053896480000000224e+02;2.892863525000000209e+03
5.041464839999999867e+02;2.839477782999999818e+03
5.029033200000000079e+02;2.859062988000000132e+03
5.016591799999999921e+02;2.921180175999999847e+03
5.004150389999999788e+02;2.884027344000000085e+03
4.991699219999999855e+02;2.812470214999999826e+03
4.979257809999999722e+02;2.840139404000000013e+03
4.966806639999999788e+02;2.790888672000000042e+03
4.954345700000000079e+02;2.826642577999999958e+03
4.941894530000000145e+02;2.870470702999999958e+03
4.929433589999999867e+02;2.784843993999999839e+03
4.916962889999999788e+02;2.834726074000000153e+03
4.904501950000000079e+02;2.872455566000000090e+03
4.892031250000000000e+02;2.885915527000000111e+03
4.879560549999999921e+02;2.705403808999999910e+03
4.867080080000000066e+02;2.743136230000000069e+03
4.854609379999999987e+02;2.752577393000000029e+03
4.842119139999999788e+02;2.772108886999999868e+03
4.829638669999999934e+02;2.729056152000000111e+03
4.817148440000000278e+02;2.722348389000000225e+03
4.804658200000000079e+02;2.647046631000000161e+03
4.792167969999999855e+02;2.710959229000000050e+03
4.779667969999999855e+02;2.756691650000000209e+03
4.767177730000000224e+02;2.635063964999999826e+03
4.754667969999999855e+02;2.727151610999999775e+03
4.742167969999999855e+02;2.714406981999999971e+03
4.729658200000000079e+02;2.659360106999999971e+03
4.717148440000000278e+02;2.634552001999999902e+03
4.704628910000000133e+02;2.603714599999999791e+03
4.692109379999999987e+02;2.675565673999999944e+03
4.679589839999999867e+02;2.614541748000000098e+03
4.667070309999999722e+02;2.585742432000000008e+03
4.654541019999999776e+02;2.575062988000000132e+03
4.642011719999999855e+02;2.614670165999999881e+03
4.629482419999999934e+02;2.630128662000000077e+03
4.616943360000000212e+02;2.661661865000000034e+03
4.604404299999999921e+02;2.683130371000000196e+03
4.591865230000000224e+02;2.652345214999999826e+03
4.579326169999999934e+02;2.718000243999999839e+03
4.566777339999999867e+02;2.699271240000000034e+03
4.554228519999999776e+02;2.776930420000000140e+03
4.541669919999999934e+02;2.607638915999999881e+03
4.529111330000000066e+02;2.609018555000000106e+03
4.516552730000000224e+02;2.636480957000000217e+03
4.503994139999999788e+02;2.633840332000000217e+03
4.491425780000000145e+02;2.554991942999999992e+03
4.478857419999999934e+02;2.690717040999999881e+03
4.466289059999999722e+02;2.567792969000000085e+03
4.453710940000000278e+02;2.543125977000000148e+03
4.441132809999999722e+02;2.556537842000000182e+03
4.428554690000000278e+02;2.551915527000000111e+03
4.415966799999999921e+02;2.689478759999999966e+03
4.403388669999999934e+02;2.638777587999999923e+03
4.390791019999999776e+02;2.682176758000000063e+03
4.378203129999999987e+02;2.733559326000000056e+03
4.365605469999999855e+02;2.804923339999999826e+03
4.353007809999999722e+02;2.722239014000000225e+03
4.340410160000000133e+02;2.885556395999999950e+03
4.327802730000000224e+02;2.910849365000000034e+03
4.315195309999999722e+02;2.830197020999999950e+03
4.302578129999999987e+02;2.853492188000000169e+03
4.289970700000000079e+02;2.826831542999999783e+03
4.277353519999999776e+02;2.860102050999999847e+03
4.264726559999999722e+02;2.905336670000000140e+03
4.252109379999999987e+02;2.942563964999999826e+03
4.239482419999999934e+02;2.915906250000000000e+03
4.226855469999999855e+02;2.963089110999999775e+03
4.214218750000000000e+02;2.938433594000000085e+03
4.201582030000000145e+02;2.913789550999999847e+03
4.188945309999999722e+02;2.956949707000000217e+03
4.176298830000000066e+02;2.950253173999999944e+03
4.163662110000000212e+02;2.937580810999999812e+03
4.151005860000000212e+02;2.901004883000000063e+03
4.138359379999999987e+02;3.051691162000000077e+03
4.125703129999999987e+02;2.999172606999999971e+03
4.113046879999999987e+02;3.050211425999999847e+03
4.100390629999999987e+02;3.135063720999999987e+03
4.087724610000000212e+02;3.197984131000000161e+03
4.075058589999999867e+02;3.197207764000000225e+03
4.062392580000000066e+02;3.206376952999999958e+03
4.049716799999999921e+02;3.235427246000000196e+03
4.037041019999999776e+02;3.330070313000000169e+03
4.024365230000000224e+02;3.190127930000000106e+03
4.011679690000000278e+02;3.165507079999999860e+03
3.998994139999999788e+02;3.174670897999999852e+03
3.986308589999999867e+02;3.159995849999999791e+03
3.973623049999999921e+02;3.248583251999999902e+03
3.960927730000000224e+02;3.235881836000000021e+03
3.948232419999999934e+02;3.205323485999999775e+03
3.935527339999999867e+02;3.252165038999999979e+03
3.922822269999999776e+02;3.324772217000000182e+03
3.910117190000000278e+02;3.458825194999999894e+03
3.897412110000000212e+02;3.515483397999999852e+03
3.884697269999999776e+02;3.471016113000000132e+03
3.871982419999999934e+02;3.737716308999999910e+03
3.859257809999999722e+02;3.883424071999999796e+03
3.846542969999999855e+02;3.959730469000000085e+03
3.833818360000000212e+02;4.127096190999999635e+03
3.821083980000000224e+02;4.181526367000000391e+03
3.808359379999999987e+02;4.245826172000000042e+03
3.795625000000000000e+02;4.318010253999999804e+03
3.782880860000000212e+02;4.283322266000000127e+03
3.770146480000000224e+02;4.323812987999999677e+03
3.757402339999999867e+02;4.297049804999999651e+03
3.744658200000000079e+02;4.262390625000000000e+03
3.731904299999999921e+02;4.261348632999999609e+03
3.719150389999999788e+02;4.114081054999999651e+03
3.706396480000000224e+02;4.156536621000000196e+03
3.693632809999999722e+02;4.108118652000000111e+03
3.680878910000000133e+02;4.247308105000000069e+03
3.668105469999999855e+02;4.277853516000000127e+03
3.655341799999999921e+02;4.347855956999999762e+03
3.642568360000000212e+02;4.405984862999999677e+03
3.629794919999999934e+02;4.645567382999999609e+03
3.617011719999999855e+02;4.825867675999999847e+03
3.604238280000000145e+02;4.968616699000000153e+03
3.591455080000000066e+02;5.176344726999999693e+03
3.578662110000000212e+02;5.604688965000000280e+03
3.565869139999999788e+02;6.121482422000000042e+03
3.553076169999999934e+02;6.677416503999999804e+03
3.540283200000000079e+02;7.518618652000000111e+03
3.527480469999999855e+02;8.479501953000000867e+03
3.514677730000000224e+02;9.682011719000000085e+03
3.501875000000000000e+02;1.152543456999999944e+04
3.489062500000000000e+02;1.353320410199999969e+04
3.476250000000000000e+02;1.596285546900000008e+04
3.463437500000000000e+02;1.798230859399999827e+04
3.450615230000000224e+02;1.924390429700000095e+04
3.437792969999999855e+02;1.913893554700000095e+04
3.424970700000000079e+02;1.752496875000000000e+04
3.412138669999999934e+02;1.525371386700000039e+04
3.399316410000000133e+02;1.258096972699999969e+04
3.386474610000000212e+02;1.048679394499999944e+04
3.373642580000000066e+02;8.725390625000000000e+03
3.360800780000000145e+02;7.608549315999999635e+03
3.347958980000000224e+02;6.523649414000000434e+03
3.335107419999999934e+02;5.743318358999999873e+03
3.322255860000000212e+02;5.151630371000000196e+03
3.309404299999999921e+02;4.713156737999999677e+03
3.296542969999999855e+02;4.176895996000000196e+03
3.283691410000000133e+02;3.838816650000000209e+03
3.270820309999999722e+02;3.641958740000000034e+03
3.257958980000000224e+02;3.341391113000000132e+03
3.245087889999999788e+02;3.268114501999999902e+03
3.232216799999999921e+02;3.120483154000000013e+03
3.219335940000000278e+02;3.156897217000000182e+03
3.206464839999999867e+02;2.960448730000000069e+03
3.193574219999999855e+02;2.826695067999999992e+03
3.180693360000000212e+02;2.855330810999999812e+03
3.167802730000000224e+02;2.754907227000000148e+03
3.154912110000000212e+02;2.793319579999999860e+03
3.142021480000000224e+02;2.737908202999999958e+03
3.129121089999999867e+02;2.653217529000000013e+03
3.116220700000000079e+02;2.750223633000000063e+03
3.103310549999999921e+02;2.634326415999999881e+03
3.090410160000000133e+02;2.596578613000000132e+03
3.077490230000000224e+02;2.595934082000000217e+03
3.064580080000000066e+02;2.655781250000000000e+03
3.051660160000000133e+02;2.604399170000000140e+03
3.038740230000000224e+02;2.512084472999999889e+03
3.025820309999999722e+02;2.587505858999999873e+03
3.012890629999999987e+02;2.514734375000000000e+03
2.999960940000000278e+02;2.551138428000000204e+03
2.987031250000000000e+02;2.466720946999999796e+03
2.974091799999999921e+02;2.378449219000000085e+03
2.961152339999999867e+02;2.547286621000000196e+03
2.948212889999999788e+02;2.632319579999999860e+03
2.935263669999999934e+02;2.674486571999999796e+03
2.922314450000000079e+02;2.794472900000000209e+03
2.909355469999999855e+02;2.924126464999999826e+03
2.896406250000000000e+02;3.466063720999999987e+03
2.883447269999999776e+02;4.400530762000000323e+03
2.870478519999999776e+02;5.526993652000000111e+03
2.857519530000000145e+02;6.314709472999999889e+03
2.844550780000000145e+02;5.745747070000000349e+03
2.831572269999999776e+02;4.574857909999999720e+03
2.818603519999999776e+02;3.657029540999999881e+03
2.805625000000000000e+02;3.201770751999999902e+03
2.792636719999999855e+02;2.969972167999999783e+03
2.779658200000000079e+02;2.996398682000000008e+03
2.766669919999999934e+02;3.005349608999999873e+03
2.753671879999999987e+02;3.307190673999999944e+03
2.740683589999999867e+02;3.833829102000000148e+03
2.727685549999999921e+02;4.590912108999999873e+03
2.714677730000000224e+02;5.374750487999999677e+03
2.701669919999999934e+02;6.034178222999999889e+03
2.688662110000000212e+02;5.691705077999999958e+03
2.675654299999999921e+02;4.880700684000000365e+03
2.662636719999999855e+02;4.021695067999999992e+03
2.649619139999999788e+02;3.523181152000000111e+03
2.636601559999999722e+02;3.081041748000000098e+03
2.623574219999999855e+02;2.863565430000000106e+03
2.610546879999999987e+02;2.582364258000000063e+03
2.597519530000000145e+02;2.601053711000000021e+03
2.584482419999999934e+02;2.540464599999999791e+03
2.571445309999999722e+02;2.421918701000000056e+03
2.558408200000000079e+02;2.401985106999999971e+03
2.545361330000000066e+02;2.438086913999999979e+03
2.532314450000000079e+02;2.447129883000000063e+03
2.519267580000000066e+02;2.380861084000000119e+03
2.506210939999999994e+02;2.411148192999999992e+03
2.493154299999999921e+02;2.474229491999999937e+03
2.480097660000000133e+02;2.591304199000000153e+03
2.467031250000000000e+02;2.652378417999999783e+03
2.453964839999999867e+02;2.582282227000000148e+03
2.440888669999999934e+02;2.496796875000000000e+03
2.427822270000000060e+02;2.503876220999999987e+03
2.414746089999999867e+02;2.537930420000000140e+03
2.401660160000000133e+02;2.602791991999999937e+03
2.388574220000000139e+02;2.561686035000000174e+03
2.375488279999999861e+02;2.587996094000000085e+03
2.362402339999999867e+02;2.618142821999999796e+03
2.349306640000000073e+02;2.594384520999999950e+03
2.336210939999999994e+02;2.730340332000000217e+03
2.323115229999999940e+02;2.783510498000000098e+03
2.310009770000000060e+02;2.836653319999999894e+03
2.296904299999999921e+02;2.953216553000000204e+03
2.283789060000000006e+02;3.133152099999999791e+03
2.270673830000000066e+02;3.289935547000000042e+03
2.257558589999999867e+02;3.711764893000000029e+03
2.244443359999999927e+02;4.290877929999999651e+03
2.231318359999999927e+02;5.180773438000000169e+03
2.218193359999999927e+02;6.312102539000000434e+03
2.205058589999999867e+02;7.792158690999999635e+03
2.191923830000000066e+02;9.242679688000000169e+03
2.178789060000000006e+02;9.177024413999999524e+03
2.165644529999999861e+02;8.221547851999999693e+03
2.152509770000000060e+02;7.145767577999999958e+03
2.139355470000000139e+02;6.162540527000000111e+03
2.126210939999999994e+02;5.377194335999999566e+03
2.113056640000000073e+02;4.916023438000000169e+03
2.099902339999999867e+02;4.681097655999999915e+03
2.086738279999999861e+02;4.785219726999999693e+03
2.073574220000000139e+02;5.274075195000000349e+03
2.060410160000000133e+02;5.978948242000000391e+03
2.047236330000000066e+02;7.066137206999999762e+03
2.034062500000000000e+02;8.024605469000000085e+03
2.020888669999999934e+02;8.060801269999999931e+03
2.007705080000000066e+02;8.190661132999999609e+03
1.994521479999999940e+02;8.926375976999999693e+03
1.981337890000000073e+02;1.076241503899999952e+04
1.968144529999999861e+02;1.280001855500000056e+04
1.954951169999999934e+02;1.536945507800000087e+04
1.941748049999999921e+02;1.825263476599999922e+04
1.928554689999999994e+02;2.171848046899999827e+04
1.915351560000000006e+02;2.483710742200000095e+04
1.902138669999999934e+02;2.561491992200000095e+04
1.888925779999999861e+02;2.320869140600000173e+04
1.875712890000000073e+02;1.870025195299999905e+04
1.862500000000000000e+02;1.422462890599999992e+04
1.849277339999999867e+02;1.121704980500000056e+04
1.836054689999999994e+02;9.255258788999999524e+03
1.822822270000000060e+02;7.479265137000000323e+03
1.809589839999999867e+02;6.281270019999999931e+03
1.796357419999999934e+02;5.519924315999999635e+03
1.783115229999999940e+02;4.932196289000000434e+03
1.769873049999999921e+02;4.476084472999999889e+03
1.756630859999999927e+02;4.248520019999999931e+03
1.743388669999999934e+02;4.038190673999999944e+03
1.730136720000000139e+02;3.978197753999999804e+03
1.716875000000000000e+02;3.895421631000000161e+03
1.703623049999999921e+02;3.877309082000000217e+03
1.690351560000000006e+02;3.747096435999999812e+03
1.677089839999999867e+02;3.846809326000000056e+03
1.663818359999999927e+02;3.954066405999999915e+03
1.650546879999999987e+02;3.977725586000000021e+03
1.637275390000000073e+02;4.012760985999999775e+03
1.623994140000000073e+02;4.228058105000000069e+03
1.610712890000000073e+02;4.365458007999999609e+03
1.597421879999999987e+02;4.398466309000000365e+03
1.584130859999999927e+02;4.368881835999999566e+03
1.570839839999999867e+02;4.540258789000000434e+03
1.557548830000000066e+02;4.410204101999999693e+03
1.544248049999999921e+02;4.462110840000000280e+03
1.530947270000000060e+02;4.453374023000000307e+03
1.517636720000000139e+02;4.211709472999999889e+03
1.504326169999999934e+02;4.021287354000000050e+03
1.491015629999999987e+02;3.872604735999999775e+03
1.477695310000000006e+02;3.640738525000000209e+03
1.464375000000000000e+02;3.374940430000000106e+03
1.451044919999999934e+02;3.292735352000000148e+03
1.437724609999999927e+02;3.221917235999999775e+03
1.424394529999999861e+02;3.069852538999999979e+03
1.411054689999999994e+02;3.205117432000000008e+03
1.397714839999999867e+02;3.226952393000000029e+03
1.384375000000000000e+02;3.029671631000000161e+03
1.371035160000000133e+02;2.830605224999999791e+03
1.357685549999999921e+02;2.684501709000000119e+03
1.344326169999999934e+02;2.625291748000000098e+03
1.330976560000000006e+02;2.601962402000000111e+03
1.317617189999999994e+02;2.597508300999999847e+03
1.304248049999999921e+02;2.608142821999999796e+03
1.290888669999999934e+02;2.516961670000000140e+03
1.277519530000000003e+02;2.525725829999999860e+03
1.264140629999999987e+02;2.402578856999999971e+03
1.250771479999999940e+02;2.439625731999999971e+03
1.237382810000000006e+02;2.378716553000000204e+03
1.224003909999999991e+02;2.393154785000000174e+03
1.210615229999999940e+02;2.228757079999999860e+03
1.197226560000000006e+02;2.207469970999999987e+03
1.183828129999999987e+02;2.180549316000000090e+03
1.170429689999999994e+02;2.181856201000000056e+03
1.157031250000000000e+02;2.162477295000000140e+03
1.143623050000000063e+02;2.220184814000000188e+03
1.130214840000000009e+02;2.287258788999999979e+03
1.116806639999999931e+02;2.406906738000000132e+03
1.103388669999999934e+02;2.695550048999999944e+03
1.089970699999999937e+02;2.828171631000000161e+03
1.076552729999999940e+02;2.782365967000000182e+03
1.063125000000000000e+02;2.284240479000000050e+03
1.049697270000000060e+02;1.799512938999999960e+03
1.036259770000000060e+02;1.298157958999999892e+03
1.022822270000000060e+02;9.283497919999999795e+02
1.009384770000000060e+02;6.843594359999999597e+02
9.959375000000000000e+01;5.117277220000000284e+02
9.824902299999999400e+01;3.466832580000000235e+02
9.690429699999999968e+01;2.210690309999999954e+02
9.555859399999999937e+01;1.292348790000000065e+02
9.421289099999999905e+01;8.238876299999999731e+01
9.286718799999999874e+01;5.428725800000000135e+01
