   4.5000      845
   4.5150      873
   4.5300      841
   4.5450      863
   4.5600      851
   4.5750      837
   4.5900      880
   4.6050      848
   4.6200      871
   4.6350      878
   4.6500      814
   4.6650      818
   4.6800      864
   4.6950      844
   4.7100      782
   4.7250      791
   4.7400      851
   4.7550      858
   4.7700      846
   4.7850      856
   4.8000      851
   4.8150      879
   4.8300      825
   4.8450      898
   4.8600      888
   4.8750      822
   4.8900      816
   4.9050      816
   4.9200      855
   4.9350      812
   4.9500      854
   4.9650      826
   4.9800      884
   4.9950      850
   5.0100      862
   5.0250      913
   5.0400      895
   5.0550      902
   5.0700      903
   5.0850      860
   5.1000      905
   5.1150      878
   5.1300      922
   5.1450      954
   5.1600      952
   5.1750      995
   5.1900      997
   5.2050      925
   5.2200      853
   5.2350      853
   5.2500      817
   5.2650      856
   5.2800      839
   5.2950      825
   5.3100      872
   5.3250      860
   5.3400      851
   5.3550      843
   5.3700      785
   5.3850      851
   5.4000      853
   5.4150      795
   5.4300      818
   5.4450      781
   5.4600      792
   5.4750      778
   5.4900      772
   5.5050      778
   5.5200      803
   5.5350      841
   5.5500      865
   5.5650      832
   5.5800      794
   5.5950      744
   5.6100      764
   5.6250      791
   5.6400      783
   5.6550      768
   5.6700      827
   5.6850      778
   5.7000      801
   5.7150      817
   5.7300      837
   5.7450      826
   5.7600      772
   5.7750      767
   5.7900      759
   5.8050      816
   5.8200      836
   5.8350      825
   5.8500      792
   5.8650      755
   5.8800      786
   5.8950      827
   5.9100      807
   5.9250      782
   5.9400      790
   5.9550      810
   5.9700      828
   5.9850      820
   6.0000      811
   6.0150      791
   6.0300      796
   6.0450      825
   6.0600      841
   6.0750      843
   6.0900      779
   6.1050      730
   6.1200      806
   6.1350      794
   6.1500      802
   6.1650      809
   6.1800      810
   6.1950      849
   6.2100      809
   6.2250      810
   6.2400      750
   6.2550      769
   6.2700      782
   6.2850      792
   6.3000      807
   6.3150      824
   6.3300      802
   6.3450      787
   6.3600      822
   6.3750      805
   6.3900      800
   6.4050      813
   6.4200      834
   6.4350      838
   6.4500      829
   6.4650      831
   6.4800      838
   6.4950      824
   6.5100      863
   6.5250      833
   6.5400      887
   6.5550      854
   6.5700      876
   6.5850      910
   6.6000      876
   6.6150      869
   6.6300      913
   6.6450      938
   6.6600      897
   6.6750      984
   6.6900     1013
   6.7050     1003
   6.7200     1072
   6.7350     1121
   6.7500     1096
   6.7650     1143
   6.7800     1221
   6.7950     1312
   6.8100     1459
   6.8250     1536
   6.8400     1592
   6.8550     1571
   6.8700     1623
   6.8850     1691
   6.9000     1880
   6.9150     2007
   6.9300     2276
   6.9450     2487
   6.9600     2687
   6.9750     3080
   6.9900     3413
   7.0050     3846
   7.0200     4346
   7.0350     4805
   7.0500     5458
   7.0650     6109
   7.0800     7055
   7.0950     8042
   7.1100     9169
   7.1250    10536
   7.1400    12279
   7.1550    14195
   7.1700    16889
   7.1850    20528
   7.2000    25476
   7.2150    32834
   7.2300    40336
   7.2450    41176
   7.2600    30627
   7.2750    15575
   7.2900     6370
   7.3050     3084
   7.3200     2158
   7.3350     1768
   7.3500     1546
   7.3650     1443
   7.3800     1378
   7.3950     1365
   7.4100     1363
   7.4250     1324
   7.4400     1384
   7.4550     1427
   7.4700     1483
   7.4850     1561
   7.5000     1648
   7.5150     1788
   7.5300     1964
   7.5450     2103
   7.5600     2416
   7.5750     2665
   7.5900     2927
   7.6050     3161
   7.6200     3682
   7.6350     4085
   7.6500     4669
   7.6650     5306
   7.6800     6059
   7.6950     7023
   7.7100     8162
   7.7250     9613
   7.7400    11494
   7.7550    13808
   7.7700    17303
   7.7850    22440
   7.8000    26880
   7.8150    26821
   7.8300    19785
   7.8450    10059
   7.8600     4244
   7.8750     2336
   7.8900     1631
   7.9050     1356
   7.9200     1150
   7.9350     1080
   7.9500     1025
   7.9650      983
   7.9800      930
   7.9950      874
   8.0100      816
   8.0250      814
   8.0400      827
   8.0550      814
   8.0700      752
   8.0850      756
   8.1000      758
   8.1150      762
   8.1300      772
   8.1450      751
   8.1600      730
   8.1750      703
   8.1900      738
   8.2050      700
   8.2200      687
   8.2350      729
   8.2500      701
   8.2650      714
   8.2800      682
   8.2950      703
   8.3100      693
   8.3250      740
   8.3400      727
   8.3550      727
   8.3700      667
   8.3850      684
   8.4000      679
   8.4150      730
   8.4300      736
   8.4450      690
   8.4600      702
   8.4750      681
   8.4900      691
   8.5050      681
   8.5200      709
   8.5350      709
   8.5500      735
   8.5650      689
   8.5800      703
   8.5950      719
   8.6100      687
   8.6250      691
   8.6400      645
   8.6550      657
   8.6700      645
   8.6850      670
   8.7000      685
   8.7150      691
   8.7300      715
   8.7450      667
   8.7600      659
   8.7750      698
   8.7900      632
   8.8050      649
   8.8200      666
   8.8350      638
   8.8500      681
   8.8650      701
   8.8800      720
   8.8950      688
   8.9100      635
   8.9250      614
   8.9400      688
   8.9550      682
   8.9700      696
   8.9850      682
   9.0000      685
   9.0150      687
   9.0300      646
   9.0450      662
   9.0600      681
   9.0750      646
   9.0900      718
   9.1050      701
   9.1200      676
   9.1350      681
   9.1500      750
   9.1650      743
   9.1800      692
   9.1950      694
   9.2100      686
   9.2250      716
   9.2400      661
   9.2550      706
   9.2700      679
   9.2850      650
   9.3000      678
   9.3150      674
   9.3300      704
   9.3450      701
   9.3600      659
   9.3750      663
   9.3900      657
   9.4050      656
   9.4200      713
   9.4350      662
   9.4500      657
   9.4650      689
   9.4800      727
   9.4950      673
   9.5100      679
   9.5250      730
   9.5400      685
   9.5550      637
   9.5700      661
   9.5850      676
   9.6000      646
   9.6150      664
   9.6300      638
   9.6450      652
   9.6600      639
   9.6750      692
   9.6900      698
   9.7050      669
   9.7200      698
   9.7350      673
   9.7500      706
   9.7650      702
   9.7800      753
   9.7950      693
   9.8100      753
   9.8250      718
   9.8400      714
   9.8550      749
   9.8700      740
   9.8850      802
   9.9000      771
   9.9150      839
   9.9300      906
   9.9450      901
   9.9600     1044
   9.9750     1050
   9.9900     1142
  10.0050     1266
  10.0200     1432
  10.0350     1590
  10.0500     1776
  10.0650     2059
  10.0800     2286
  10.0950     2757
  10.1100     3141
  10.1250     3180
  10.1400     2659
  10.1550     1865
  10.1700     1335
  10.1850     1042
  10.2000      955
  10.2150      947
  10.2300      932
  10.2450      926
  10.2600      900
  10.2750      944
  10.2900      991
  10.3050     1051
  10.3200     1107
  10.3350     1190
  10.3500     1252
  10.3650     1441
  10.3800     1527
  10.3950     1485
  10.4100     1316
  10.4250     1053
  10.4400      891
  10.4550      792
  10.4700      779
  10.4850      765
  10.5000      765
  10.5150      746
  10.5300      758
  10.5450      805
  10.5600      842
  10.5750      847
  10.5900      842
  10.6050      930
  10.6200      985
  10.6350     1054
  10.6500     1174
  10.6650     1253
  10.6800     1404
  10.6950     1611
  10.7100     1672
  10.7250     1679
  10.7400     1498
  10.7550     1421
  10.7700     1498
  10.7850     1646
  10.8000     1924
  10.8150     2240
  10.8300     2526
  10.8450     2940
  10.8600     3053
  10.8750     2460
  10.8900     1768
  10.9050     1271
  10.9200     1052
  10.9350     1022
  10.9500     1081
  10.9650     1118
  10.9800     1098
  10.9950     1041
  11.0100      886
  11.0250      773
  11.0400      733
  11.0550      673
  11.0700      718
  11.0850      693
  11.1000      734
  11.1150      689
  11.1300      711
  11.1450      637
  11.1600      646
  11.1750      673
  11.1900      652
  11.2050      654
  11.2200      642
  11.2350      676
  11.2500      631
  11.2650      653
  11.2800      653
  11.2950      662
  11.3100      635
  11.3250      634
  11.3400      617
  11.3550      650
  11.3700      647
  11.3850      609
  11.4000      626
  11.4150      627
  11.4300      626
  11.4450      662
  11.4600      600
  11.4750      632
  11.4900      640
  11.5050      625
  11.5200      615
  11.5350      607
  11.5500      624
  11.5650      640
  11.5800      622
  11.5950      616
  11.6100      617
  11.6250      611
  11.6400      633
  11.6550      625
  11.6700      613
  11.6850      598
  11.7000      620
  11.7150      616
  11.7300      630
  11.7450      626
  11.7600      640
  11.7750      674
  11.7900      660
  11.8050      632
  11.8200      613
  11.8350      650
  11.8500      592
  11.8650      611
  11.8800      632
  11.8950      661
  11.9100      626
  11.9250      592
  11.9400      632
  11.9550      624
  11.9700      593
  11.9850      605
  12.0000      629
  12.0150      657
  12.0300      655
  12.0450      676
  12.0600      686
  12.0750      696
  12.0900      673
  12.1050      708
  12.1200      728
  12.1350      791
  12.1500      853
  12.1650      912
  12.1800      983
  12.1950     1183
  12.2100     1289
  12.2250     1353
  12.2400     1193
  12.2550      939
  12.2700      761
  12.2850      666
  12.3000      668
  12.3150      664
  12.3300      679
  12.3450      619
  12.3600      635
  12.3750      602
  12.3900      653
  12.4050      607
  12.4200      666
  12.4350      634
  12.4500      662
  12.4650      635
  12.4800      627
  12.4950      656
  12.5100      659
  12.5250      721
  12.5400      666
  12.5550      690
  12.5700      765
  12.5850      787
  12.6000      835
  12.6150      896
  12.6300      927
  12.6450     1097
  12.6600     1214
  12.6750     1394
  12.6900     1577
  12.7050     1564
  12.7200     1437
  12.7350     1394
  12.7500     1477
  12.7650     1514
  12.7800     1710
  12.7950     2100
  12.8100     2439
  12.8250     3057
  12.8400     3751
  12.8550     4422
  12.8700     4623
  12.8850     4013
  12.9000     2747
  12.9150     1694
  12.9300     1238
  12.9450      978
  12.9600      887
  12.9750      809
  12.9900      825
  13.0050      749
  13.0200      718
  13.0350      679
  13.0500      698
  13.0650      670
  13.0800      690
  13.0950      695
  13.1100      721
  13.1250      721
  13.1400      748
  13.1550      774
  13.1700      831
  13.1850      932
  13.2000     1027
  13.2150     1128
  13.2300     1245
  13.2450     1273
  13.2600     1145
  13.2750      934
  13.2900      904
  13.3050      863
  13.3200      947
  13.3350     1002
  13.3500     1145
  13.3650     1272
  13.3800     1464
  13.3950     1704
  13.4100     2046
  13.4250     2351
  13.4400     2734
  13.4550     2757
  13.4700     2589
  13.4850     2138
  13.5000     1607
  13.5150     1283
  13.5300     1180
  13.5450     1127
  13.5600     1211
  13.5750     1360
  13.5900     1553
  13.6050     1706
  13.6200     2002
  13.6350     2472
  13.6500     3203
  13.6650     4128
  13.6800     5215
  13.6950     5398
  13.7100     4360
  13.7250     3084
  13.7400     1830
  13.7550     1212
  13.7700      918
  13.7850      856
  13.8000      816
  13.8150      934
  13.8300      905
  13.8450      970
  13.8600     1033
  13.8750      907
  13.8900      758
  13.9050      694
  13.9200      654
  13.9350      603
  13.9500      609
  13.9650      588
  13.9800      555
  13.9950      584
  14.0100      590
  14.0250      600
  14.0400      570
  14.0550      567
  14.0700      553
  14.0850      590
  14.1000      595
  14.1150      617
  14.1300      637
  14.1450      627
  14.1600      635
  14.1750      630
  14.1900      645
  14.2050      626
  14.2200      660
  14.2350      659
  14.2500      610
  14.2650      670
  14.2800      680
  14.2950      732
  14.3100      760
  14.3250      785
  14.3400      840
  14.3550      996
  14.3700     1029
  14.3850     1071
  14.4000     1045
  14.4150     1027
  14.4300      931
  14.4450      960
  14.4600     1067
  14.4750     1139
  14.4900     1157
  14.5050     1090
  14.5200     1088
  14.5350     1061
  14.5500      893
  14.5650      742
  14.5800      635
  14.5950      624
  14.6100      573
  14.6250      573
  14.6400      596
  14.6550      527
  14.6700      556
  14.6850      579
  14.7000      593
  14.7150      563
  14.7300      559
  14.7450      577
  14.7600      578
  14.7750      615
  14.7900      645
  14.8050      649
  14.8200      698
  14.8350      737
  14.8500      774
  14.8650      845
  14.8800      891
  14.8950     1007
  14.9100     1146
  14.9250     1346
  14.9400     1576
  14.9550     1951
  14.9700     2316
  14.9850     2511
  15.0000     2847
  15.0150     3193
  15.0300     3769
  15.0450     4581
  15.0600     5672
  15.0750     6395
  15.0900     6251
  15.1050     5062
  15.1200     3461
  15.1350     2171
  15.1500     1485
  15.1650     1113
  15.1800      944
  15.1950      853
  15.2100      775
  15.2250      773
  15.2400      776
  15.2550      732
  15.2700      770
  15.2850      791
  15.3000      836
  15.3150      941
  15.3300     1054
  15.3450     1197
  15.3600     1379
  15.3750     1579
  15.3900     1957
  15.4050     2266
  15.4200     2481
  15.4350     2404
  15.4500     1980
  15.4650     1428
  15.4800     1052
  15.4950      875
  15.5100      825
  15.5250      818
  15.5400      835
  15.5550      851
  15.5700      912
  15.5850     1003
  15.6000     1067
  15.6150     1080
  15.6300      997
  15.6450      984
  15.6600      932
  15.6750      925
  15.6900      955
  15.7050     1039
  15.7200     1162
  15.7350     1373
  15.7500     1606
  15.7650     1907
  15.7800     2141
  15.7950     2091
  15.8100     1892
  15.8250     1472
  15.8400     1191
  15.8550     1081
  15.8700      987
  15.8850      941
  15.9000      862
  15.9150      877
  15.9300      893
  15.9450      885
  15.9600      948
  15.9750      963
  15.9900      950
  16.0050      933
  16.0200      850
  16.0350      748
  16.0500      696
  16.0650      653
  16.0800      630
  16.0950      655
  16.1100      636
  16.1250      618
  16.1400      609
  16.1550      597
  16.1700      632
  16.1850      621
  16.2000      636
  16.2150      678
  16.2300      699
  16.2450      715
  16.2600      753
  16.2750      866
  16.2900      939
  16.3050      988
  16.3200     1136
  16.3350     1354
  16.3500     1581
  16.3650     1960
  16.3800     2395
  16.3950     3043
  16.4100     3740
  16.4250     5063
  16.4400     6470
  16.4550     8245
  16.4700     9953
  16.4850    10309
  16.5000     9147
  16.5150     7064
  16.5300     5108
  16.5450     4212
  16.5600     4062
  16.5750     4578
  16.5900     5421
  16.6050     6274
  16.6200     6647
  16.6350     5857
  16.6500     4468
  16.6650     2986
  16.6800     1973
  16.6950     1423
  16.7100     1207
  16.7250     1007
  16.7400      867
  16.7550      850
  16.7700      826
  16.7850      782
  16.8000      795
  16.8150      813
  16.8300      882
  16.8450      888
  16.8600      987
  16.8750      980
  16.8900     1013
  16.9050      994
  16.9200     1022
  16.9350     1114
  16.9500     1159
  16.9650     1223
  16.9800     1267
  16.9950     1333
  17.0100     1385
  17.0250     1553
  17.0400     1828
  17.0550     2085
  17.0700     2508
  17.0850     3169
  17.1000     3633
  17.1150     3868
  17.1300     3431
  17.1450     2711
  17.1600     1929
  17.1750     1308
  17.1900     1065
  17.2050      851
  17.2200      786
  17.2350      759
  17.2500      690
  17.2650      676
  17.2800      637
  17.2950      676
  17.3100      651
  17.3250      659
  17.3400      661
  17.3550      716
  17.3700      709
  17.3850      777
  17.4000      828
  17.4150      820
  17.4300      798
  17.4450      681
  17.4600      611
  17.4750      589
  17.4900      579
  17.5050      566
  17.5200      586
  17.5350      579
  17.5500      571
  17.5650      571
  17.5800      630
  17.5950      579
  17.6100      592
  17.6250      628
  17.6400      601
  17.6550      592
  17.6700      622
  17.6850      663
  17.7000      698
  17.7150      724
  17.7300      791
  17.7450      908
  17.7600      978
  17.7750      969
  17.7900      935
  17.8050      854
  17.8200      821
  17.8350      742
  17.8500      671
  17.8650      633
  17.8800      621
  17.8950      667
  17.9100      635
  17.9250      616
  17.9400      634
  17.9550      664
  17.9700      647
  17.9850      644
  18.0000      677
  18.0150      714
  18.0300      703
  18.0450      762
  18.0600      819
  18.0750      923
  18.0900     1050
  18.1050     1155
  18.1200     1288
  18.1350     1477
  18.1500     1785
  18.1650     2109
  18.1800     2536
  18.1950     3170
  18.2100     3945
  18.2250     4827
  18.2400     5705
  18.2550     6466
  18.2700     6558
  18.2850     6093
  18.3000     5682
  18.3150     5339
  18.3300     5747
  18.3450     6633
  18.3600     8130
  18.3750     9415
  18.3900     9928
  18.4050     9070
  18.4200     7369
  18.4350     5195
  18.4500     3452
  18.4650     2582
  18.4800     1910
  18.4950     1601
  18.5100     1393
  18.5250     1228
  18.5400     1162
  18.5550     1077
  18.5700     1085
  18.5850     1056
  18.6000     1036
  18.6150     1035
  18.6300     1022
  18.6450     1020
  18.6600     1147
  18.6750     1187
  18.6900     1284
  18.7050     1430
  18.7200     1701
  18.7350     2085
  18.7500     2622
  18.7650     3307
  18.7800     4249
  18.7950     5101
  18.8100     5428
  18.8250     4901
  18.8400     4082
  18.8550     2981
  18.8700     2473
  18.8850     2341
  18.9000     2531
  18.9150     2728
  18.9300     3399
  18.9450     4133
  18.9600     4872
  18.9750     5591
  18.9900     5930
  19.0050     5531
  19.0200     4594
  19.0350     3428
  19.0500     2356
  19.0650     1571
  19.0800     1192
  19.0950     1085
  19.1100     1036
  19.1250     1076
  19.1400     1053
  19.1550     1034
  19.1700     1008
  19.1850      922
  19.2000      805
  19.2150      731
  19.2300      720
  19.2450      680
  19.2600      647
  19.2750      662
  19.2900      637
  19.3050      643
  19.3200      671
  19.3350      625
  19.3500      612
  19.3650      626
  19.3800      662
  19.3950      641
  19.4100      611
  19.4250      606
  19.4400      661
  19.4550      631
  19.4700      631
  19.4850      689
  19.5000      669
  19.5150      705
  19.5300      688
  19.5450      706
  19.5600      729
  19.5750      775
  19.5900      798
  19.6050      780
  19.6200      704
  19.6350      721
  19.6500      760
  19.6650      797
  19.6800      817
  19.6950      827
  19.7100      901
  19.7250     1009
  19.7400     1151
  19.7550     1295
  19.7700     1510
  19.7850     1790
  19.8000     2169
  19.8150     2611
  19.8300     3269
  19.8450     4238
  19.8600     5476
  19.8750     6935
  19.8900     8533
  19.9050     9645
  19.9200     9868
  19.9350     9043
  19.9500     7337
  19.9650     5608
  19.9800     4510
  19.9950     4105
  20.0100     4304
  20.0250     4390
  20.0400     3999
  20.0550     3249
  20.0700     2479
  20.0850     1946
  20.1000     1534
  20.1150     1335
  20.1300     1242
  20.1450     1109
  20.1600     1064
  20.1750      987
  20.1900     1008
  20.2050     1033
  20.2200     1044
  20.2350     1066
  20.2500     1189
  20.2650     1327
  20.2800     1510
  20.2950     1801
  20.3100     2064
  20.3250     2339
  20.3400     2323
  20.3550     2185
  20.3700     1872
  20.3850     1524
  20.4000     1337
  20.4150     1169
  20.4300     1116
  20.4450     1119
  20.4600     1159
  20.4750     1340
  20.4900     1511
  20.5050     1675
  20.5200     2164
  20.5350     2675
  20.5500     3406
  20.5650     3931
  20.5800     3912
  20.5950     3287
  20.6100     2524
  20.6250     1754
  20.6400     1277
  20.6550     1078
  20.6700     1032
  20.6850     1020
  20.7000     1047
  20.7150     1150
  20.7300     1295
  20.7450     1376
  20.7600     1594
  20.7750     1799
  20.7900     2009
  20.8050     2327
  20.8200     2710
  20.8350     3345
  20.8500     3910
  20.8650     4215
  20.8800     4219
  20.8950     3802
  20.9100     2953
  20.9250     2305
  20.9400     1766
  20.9550     1462
  20.9700     1338
  20.9850     1289
  21.0000     1293
  21.0150     1337
  21.0300     1384
  21.0450     1372
  21.0600     1291
  21.0750     1330
  21.0900     1395
  21.1050     1514
  21.1200     1751
  21.1350     2072
  21.1500     2441
  21.1650     3088
  21.1800     3664
  21.1950     4224
  21.2100     4705
  21.2250     4857
  21.2400     4323
  21.2550     3561
  21.2700     2880
  21.2850     2471
  21.3000     2342
  21.3150     2424
  21.3300     2500
  21.3450     2525
  21.3600     2231
  21.3750     2019
  21.3900     1720
  21.4050     1570
  21.4200     1573
  21.4350     1735
  21.4500     2084
  21.4650     2497
  21.4800     3168
  21.4950     3910
  21.5100     4490
  21.5250     4981
  21.5400     4881
  21.5550     4041
  21.5700     3037
  21.5850     2216
  21.6000     1594
  21.6150     1229
  21.6300     1067
  21.6450      990
  21.6600      977
  21.6750      925
  21.6900      907
  21.7050      917
  21.7200      946
  21.7350     1000
  21.7500     1170
  21.7650     1388
  21.7800     1635
  21.7950     1980
  21.8100     2229
  21.8250     2448
  21.8400     2690
  21.8550     2587
  21.8700     2453
  21.8850     2189
  21.9000     1713
  21.9150     1348
  21.9300     1058
  21.9450      969
  21.9600      902
  21.9750      889
  21.9900      844
  22.0050      953
  22.0200      999
  22.0350     1092
  22.0500     1177
  22.0650     1259
  22.0800     1250
  22.0950     1139
  22.1100      939
  22.1250      803
  22.1400      719
  22.1550      708
  22.1700      664
  22.1850      654
  22.2000      655
  22.2150      648
  22.2300      603
  22.2450      559
  22.2600      523
  22.2750      533
  22.2900      525
  22.3050      521
  22.3200      503
  22.3350      508
  22.3500      479
  22.3650      489
  22.3800      478
  22.3950      471
  22.4100      451
  22.4250      505
  22.4400      485
  22.4550      442
  22.4700      459
  22.4850      505
  22.5000      467
  22.5150      491
  22.5300      479
  22.5450      477
  22.5600      486
  22.5750      475
  22.5900      448
  22.6050      482
  22.6200      461
  22.6350      455
  22.6500      440
  22.6650      441
  22.6800      496
  22.6950      501
  22.7100      471
  22.7250      498
  22.7400      461
  22.7550      470
  22.7700      487
  22.7850      466
  22.8000      510
  22.8150      515
  22.8300      564
  22.8450      552
  22.8600      593
  22.8750      625
  22.8900      617
  22.9050      693
  22.9200      780
  22.9350      743
  22.9500      702
  22.9650      619
  22.9800      587
  22.9950      565
  23.0100      513
  23.0250      527
  23.0400      552
  23.0550      534
  23.0700      546
  23.0850      576
  23.1000      572
  23.1150      622
  23.1300      627
  23.1450      581
  23.1600      568
  23.1750      569
  23.1900      584
  23.2050      584
  23.2200      580
  23.2350      641
  23.2500      641
  23.2650      699
  23.2800      708
  23.2950      748
  23.3100      807
  23.3250      890
  23.3400     1020
  23.3550     1081
  23.3700     1010
  23.3850      993
  23.4000      866
  23.4150      732
  23.4300      656
  23.4450      616
  23.4600      593
  23.4750      580
  23.4900      578
  23.5050      528
  23.5200      545
  23.5350      561
  23.5500      602
  23.5650      619
  23.5800      612
  23.5950      637
  23.6100      626
  23.6250      602
  23.6400      573
  23.6550      623
  23.6700      584
  23.6850      553
  23.7000      600
  23.7150      617
  23.7300      635
  23.7450      665
  23.7600      710
  23.7750      745
  23.7900      750
  23.8050      745
  23.8200      731
  23.8350      703
  23.8500      742
  23.8650      712
  23.8800      822
  23.8950      861
  23.9100      979
  23.9250     1156
  23.9400     1383
  23.9550     1645
  23.9700     2095
  23.9850     2424
  24.0000     2580
  24.0150     2612
  24.0300     2240
  24.0450     1858
  24.0600     1516
  24.0750     1371
  24.0900     1317
  24.1050     1372
  24.1200     1521
  24.1350     1652
  24.1500     1695
  24.1650     1649
  24.1800     1548
  24.1950     1295
  24.2100     1090
  24.2250      913
  24.2400      847
  24.2550      774
  24.2700      724
  24.2850      699
  24.3000      732
  24.3150      709
  24.3300      761
  24.3450      809
  24.3600      846
  24.3750      851
  24.3900      929
  24.4050     1035
  24.4200     1106
  24.4350     1191
  24.4500     1345
  24.4650     1426
  24.4800     1596
  24.4950     1868
  24.5100     2147
  24.5250     2429
  24.5400     2891
  24.5550     3582
  24.5700     4421
  24.5850     5342
  24.6000     5629
  24.6150     5390
  24.6300     4426
  24.6450     3237
  24.6600     2208
  24.6750     1593
  24.6900     1238
  24.7050     1022
  24.7200      936
  24.7350      938
  24.7500      962
  24.7650     1017
  24.7800     1061
  24.7950     1145
  24.8100     1139
  24.8250     1210
  24.8400     1127
  24.8550     1064
  24.8700      993
  24.8850      974
  24.9000     1021
  24.9150     1091
  24.9300     1288
  24.9450     1533
  24.9600     1714
  24.9750     2019
  24.9900     2137
  25.0050     2163
  25.0200     2024
  25.0350     1698
  25.0500     1385
  25.0650     1140
  25.0800      974
  25.0950      842
  25.1100      766
  25.1250      751
  25.1400      783
  25.1550      753
  25.1700      789
  25.1850      820
  25.2000      813
  25.2150      846
  25.2300      829
  25.2450      846
  25.2600      910
  25.2750      987
  25.2900      957
  25.3050      873
  25.3200      865
  25.3350      881
  25.3500      854
  25.3650      839
  25.3800      805
  25.3950      856
  25.4100      866
  25.4250      865
  25.4400      951
  25.4550     1062
  25.4700     1178
  25.4850     1340
  25.5000     1579
  25.5150     1726
  25.5300     1745
  25.5450     1607
  25.5600     1467
  25.5750     1258
  25.5900      995
  25.6050      907
  25.6200      828
  25.6350      750
  25.6500      725
  25.6650      748
  25.6800      755
  25.6950      777
  25.7100      843
  25.7250      948
  25.7400     1041
  25.7550     1229
  25.7700     1435
  25.7850     1706
  25.8000     2052
  25.8150     2319
  25.8300     2641
  25.8450     2868
  25.8600     2827
  25.8750     2559
  25.8900     2102
  25.9050     1706
  25.9200     1406
  25.9350     1175
  25.9500     1069
  25.9650      959
  25.9800      870
  25.9950      801
  26.0100      749
  26.0250      739
  26.0400      732
  26.0550      750
  26.0700      772
  26.0850      749
  26.1000      725
  26.1150      762
  26.1300      712
  26.1450      671
  26.1600      654
  26.1750      715
  26.1900      713
  26.2050      698
  26.2200      644
  26.2350      662
  26.2500      645
  26.2650      697
  26.2800      707
  26.2950      746
  26.3100      795
  26.3250      873
  26.3400      890
  26.3550      932
  26.3700      862
  26.3850      794
  26.4000      823
  26.4150      731
  26.4300      657
  26.4450      652
  26.4600      733
  26.4750      742
  26.4900      798
  26.5050      807
  26.5200      866
  26.5350      923
  26.5500     1030
  26.5650     1133
  26.5800     1413
  26.5950     1811
  26.6100     2287
  26.6250     3033
  26.6400     3861
  26.6550     4511
  26.6700     4788
  26.6850     4508
  26.7000     3801
  26.7150     2802
  26.7300     1941
  26.7450     1377
  26.7600     1177
  26.7750     1096
  26.7900     1027
  26.8050     1005
  26.8200     1021
  26.8350     1014
  26.8500     1039
  26.8650     1113
  26.8800     1231
  26.8950     1270
  26.9100     1380
  26.9250     1425
  26.9400     1483
  26.9550     1759
  26.9700     2025
  26.9850     2408
  27.0000     2758
  27.0150     2898
  27.0300     2844
  27.0450     2598
  27.0600     2217
  27.0750     1944
  27.0900     1598
  27.1050     1466
  27.1200     1399
  27.1350     1308
  27.1500     1187
  27.1650     1188
  27.1800     1089
  27.1950     1003
  27.2100      946
  27.2250      926
  27.2400      959
  27.2550      910
  27.2700      992
  27.2850     1041
  27.3000     1170
  27.3150     1343
  27.3300     1654
  27.3450     2048
  27.3600     2637
  27.3750     3200
  27.3900     3991
  27.4050     4784
  27.4200     5365
  27.4350     5296
  27.4500     4818
  27.4650     3934
  27.4800     3147
  27.4950     2320
  27.5100     1801
  27.5250     1678
  27.5400     1623
  27.5550     1743
  27.5700     2034
  27.5850     2266
  27.6000     2450
  27.6150     2358
  27.6300     2350
  27.6450     2236
  27.6600     2127
  27.6750     2168
  27.6900     2195
  27.7050     2168
  27.7200     2199
  27.7350     2116
  27.7500     1941
  27.7650     1834
  27.7800     1666
  27.7950     1438
  27.8100     1221
  27.8250     1074
  27.8400      923
  27.8550      844
  27.8700      775
  27.8850      758
  27.9000      684
  27.9150      651
  27.9300      646
  27.9450      627
  27.9600      614
  27.9750      608
  27.9900      616
  28.0050      605
  28.0200      651
  28.0350      672
  28.0500      715
  28.0650      745
  28.0800      859
  28.0950      831
  28.1100      812
  28.1250      802
  28.1400      742
  28.1550      727
  28.1700      701
  28.1850      645
  28.2000      637
  28.2150      635
  28.2300      660
  28.2450      687
  28.2600      790
  28.2750      802
  28.2900      910
  28.3050      970
  28.3200      975
  28.3350      929
  28.3500      840
  28.3650      803
  28.3800      788
  28.3950      800
  28.4100      842
  28.4250      934
  28.4400     1021
  28.4550     1048
  28.4700     1049
  28.4850      971
  28.5000      866
  28.5150      819
  28.5300      747
  28.5450      700
  28.5600      675
  28.5750      667
  28.5900      678
  28.6050      739
  28.6200      737
  28.6350      746
  28.6500      798
  28.6650      830
  28.6800      878
  28.6950      955
  28.7100     1025
  28.7250     1027
  28.7400     1015
  28.7550      990
  28.7700      874
  28.7850      774
  28.8000      640
  28.8150      650
  28.8300      603
  28.8450      570
  28.8600      552
  28.8750      522
  28.8900      533
  28.9050      527
  28.9200      541
  28.9350      557
  28.9500      562
  28.9650      603
  28.9800      624
  28.9950      715
  29.0100      791
  29.0250      868
  29.0400      935
  29.0550      909
  29.0700      858
  29.0850      805
  29.1000      684
  29.1150      644
  29.1300      553
  29.1450      550
  29.1600      523
  29.1750      501
  29.1900      504
  29.2050      515
  29.2200      544
  29.2350      516
  29.2500      537
  29.2650      579
  29.2800      595
  29.2950      617
  29.3100      610
  29.3250      586
  29.3400      542
  29.3550      532
  29.3700      496
  29.3850      485
  29.4000      513
  29.4150      513
  29.4300      467
  29.4450      511
  29.4600      504
  29.4750      536
  29.4900      500
  29.5050      476
  29.5200      520
  29.5350      502
  29.5500      501
  29.5650      471
  29.5800      490
  29.5950      493
  29.6100      494
  29.6250      495
  29.6400      539
  29.6550      553
  29.6700      559
  29.6850      504
  29.7000      487
  29.7150      482
  29.7300      479
  29.7450      446
  29.7600      440
  29.7750      439
  29.7900      458
  29.8050      478
  29.8200      469
  29.8350      464
  29.8500      482
  29.8650      454
  29.8800      496
  29.8950      494
  29.9100      513
  29.9250      501
  29.9400      493
  29.9550      471
  29.9700      494
  29.9850      501
  30.0000      495
  30.0150      479
  30.0300      498
  30.0450      519
  30.0600      537
  30.0750      559
  30.0900      590
  30.1050      554
  30.1200      539
  30.1350      566
  30.1500      557
  30.1650      541
  30.1800      506
  30.1950      501
  30.2100      526
  30.2250      525
  30.2400      537
  30.2550      610
  30.2700      585
  30.2850      593
  30.3000      635
  30.3150      709
  30.3300      788
  30.3450      830
  30.3600      886
  30.3750     1023
  30.3900     1013
  30.4050     1130
  30.4200     1210
  30.4350     1282
  30.4500     1290
  30.4650     1194
  30.4800     1105
  30.4950      960
  30.5100      776
  30.5250      724
  30.5400      702
  30.5550      680
  30.5700      676
  30.5850      709
  30.6000      772
  30.6150      818
  30.6300      827
  30.6450      805
  30.6600      813
  30.6750      749
  30.6900      687
  30.7050      623
  30.7200      565
  30.7350      535
  30.7500      535
  30.7650      532
  30.7800      496
  30.7950      519
  30.8100      501
  30.8250      489
  30.8400      496
  30.8550      519
  30.8700      538
  30.8850      545
  30.9000      550
  30.9150      537
  30.9300      560
  30.9450      614
  30.9600      608
  30.9750      673
  30.9900      706
  31.0050      828
  31.0200      925
  31.0350     1008
  31.0500     1208
  31.0650     1235
  31.0800     1248
  31.0950     1243
  31.1100     1244
  31.1250     1170
  31.1400     1145
  31.1550     1189
  31.1700     1278
  31.1850     1192
  31.2000     1074
  31.2150      989
  31.2300      848
  31.2450      733
  31.2600      719
  31.2750      687
  31.2900      630
  31.3050      632
  31.3200      623
  31.3350      584
  31.3500      599
  31.3650      605
  31.3800      593
  31.3950      648
  31.4100      690
  31.4250      737
  31.4400      853
  31.4550      896
  31.4700      981
  31.4850     1035
  31.5000     1017
  31.5150      946
  31.5300      869
  31.5450      797
  31.5600      754
  31.5750      659
  31.5900      644
  31.6050      623
  31.6200      587
  31.6350      553
  31.6500      550
  31.6650      547
  31.6800      594
  31.6950      619
  31.7100      691
  31.7250      747
  31.7400      761
  31.7550      804
  31.7700      820
  31.7850      840
  31.8000      813
  31.8150      791
  31.8300      787
  31.8450      802
  31.8600      851
  31.8750      853
  31.8900      925
  31.9050      980
  31.9200      949
  31.9350      999
  31.9500     1014
  31.9650     1080
  31.9800     1043
  31.9950     1013
  32.0100      994
  32.0250      926
  32.0400      915
  32.0550      857
  32.0700      753
  32.0850      710
  32.1000      688
  32.1150      615
  32.1300      572
  32.1450      566
  32.1600      598
  32.1750      560
  32.1900      565
  32.2050      520
  32.2200      520
  32.2350      589
  32.2500      618
  32.2650      618
  32.2800      668
  32.2950      705
  32.3100      766
  32.3250      830
  32.3400      920
  32.3550      893
  32.3700      847
  32.3850      902
  32.4000      973
  32.4150      917
  32.4300      844
  32.4450      823
  32.4600      776
  32.4750      758
  32.4900      669
  32.5050      586
  32.5200      541
  32.5350      521
  32.5500      552
  32.5650      583
  32.5800      620
  32.5950      594
  32.6100      631
  32.6250      615
  32.6400      637
  32.6550      595
  32.6700      614
  32.6850      689
  32.7000      677
  32.7150      663
  32.7300      660
  32.7450      629
  32.7600      593
  32.7750      561
  32.7900      540
  32.8050      526
  32.8200      503
  32.8350      483
  32.8500      493
  32.8650      536
  32.8800      530
  32.8950      524
  32.9100      519
  32.9250      545
  32.9400      569
  32.9550      608
  32.9700      578
  32.9850      590
  33.0000      585
  33.0150      563
  33.0300      553
  33.0450      581
  33.0600      585
  33.0750      657
  33.0900      685
  33.1050      735
  33.1200      856
  33.1350      986
  33.1500     1090
  33.1650     1272
  33.1800     1445
  33.1950     1613
  33.2100     1679
  33.2250     1663
  33.2400     1600
  33.2550     1480
  33.2700     1339
  33.2850     1178
  33.3000     1069
  33.3150      944
  33.3300      847
  33.3450      810
  33.3600      818
  33.3750      802
  33.3900      758
  33.4050      779
  33.4200      718
  33.4350      664
  33.4500      665
  33.4650      688
  33.4800      715
  33.4950      737
  33.5100      750
  33.5250      781
  33.5400      803
  33.5550      859
  33.5700      881
  33.5850      838
  33.6000      938
  33.6150      993
  33.6300     1019
  33.6450      991
  33.6600     1074
  33.6750      986
  33.6900      934
  33.7050      935
  33.7200      829
  33.7350      752
  33.7500      729
  33.7650      688
  33.7800      652
  33.7950      610
  33.8100      628
  33.8250      651
  33.8400      635
  33.8550      581
  33.8700      546
  33.8850      585
  33.9000      588
  33.9150      526
  33.9300      529
  33.9450      546
  33.9600      569
  33.9750      566
  33.9900      516
  34.0050      536
  34.0200      606
  34.0350      657
  34.0500      666
  34.0650      673
  34.0800      679
  34.0950      714
  34.1100      733
  34.1250      721
  34.1400      730
  34.1550      727
  34.1700      736
  34.1850      766
  34.2000      762
  34.2150      761
  34.2300      810
  34.2450      794
  34.2600      762
  34.2750      738
  34.2900      748
  34.3050      697
  34.3200      677
  34.3350      736
  34.3500      810
  34.3650      847
  34.3800      857
  34.3950     1033
  34.4100     1113
  34.4250     1189
  34.4400     1103
  34.4550     1059
  34.4700     1093
  34.4850      968
  34.5000      921
  34.5150      843
  34.5300      886
  34.5450      929
  34.5600      958
  34.5750     1000
  34.5900     1079
  34.6050     1131
  34.6200     1189
  34.6350     1186
  34.6500     1156
  34.6650     1133
  34.6800     1038
  34.6950      951
  34.7100      881
  34.7250      799
  34.7400      769
  34.7550      726
  34.7700      664
  34.7850      601
  34.8000      644
  34.8150      601
  34.8300      576
  34.8450      560
  34.8600      578
  34.8750      600
  34.8900      565
  34.9050      542
  34.9200      568
  34.9350      554
  34.9500      533
  34.9650      521
  34.9800      543
  34.9950      494
  35.0100      519
  35.0250      526
  35.0400      543
  35.0550      523
  35.0700      532
  35.0850      546
  35.1000      573
  35.1150      567
  35.1300      548
  35.1450      599
  35.1600      644
  35.1750      626
  35.1900      648
  35.2050      705
  35.2200      699
  35.2350      725
  35.2500      757
  35.2650      794
  35.2800      853
  35.2950      958
  35.3100     1064
  35.3250     1092
  35.3400     1085
  35.3550     1118
  35.3700     1151
  35.3850     1096
  35.4000      979
  35.4150      875
  35.4300      811
  35.4450      776
  35.4600      754
  35.4750      701
  35.4900      713
  35.5050      770
  35.5200      843
  35.5350      907
  35.5500      985
  35.5650     1084
  35.5800     1233
  35.5950     1261
  35.6100     1362
  35.6250     1287
  35.6400     1206
  35.6550     1075
  35.6700      999
  35.6850      853
  35.7000      798
  35.7150      709
  35.7300      640
  35.7450      652
  35.7600      646
  35.7750      639
  35.7900      654
  35.8050      653
  35.8200      641
  35.8350      630
  35.8500      631
  35.8650      657
  35.8800      665
  35.8950      740
  35.9100      754
  35.9250      772
  35.9400      868
  35.9550      924
  35.9700      968
  35.9850      989
  36.0000      952
  36.0150      971
  36.0300      932
  36.0450      909
  36.0600      897
  36.0750      931
  36.0900      928
  36.1050      939
  36.1200      995
  36.1350     1018
  36.1500      975
  36.1650      947
  36.1800      974
  36.1950      934
  36.2100      850
  36.2250      845
  36.2400      913
  36.2550      940
  36.2700     1008
  36.2850     1071
  36.3000     1183
  36.3150     1244
  36.3300     1403
  36.3450     1585
  36.3600     1756
  36.3750     2011
  36.3900     2265
  36.4050     2331
  36.4200     2284
  36.4350     2281
  36.4500     2226
  36.4650     1975
  36.4800     1855
  36.4950     1770
  36.5100     1515
  36.5250     1394
  36.5400     1262
  36.5550     1199
  36.5700     1093
  36.5850     1130
  36.6000     1058
  36.6150     1070
  36.6300     1099
  36.6450     1121
  36.6600     1041
  36.6750      974
  36.6900      877
  36.7050      826
  36.7200      797
  36.7350      777
  36.7500      759
  36.7650      745
  36.7800      714
  36.7950      711
  36.8100      718
  36.8250      710
  36.8400      729
  36.8550      716
  36.8700      747
  36.8850      724
  36.9000      732
  36.9150      769
  36.9300      806
  36.9450      792
  36.9600      825
  36.9750      915
  36.9900      959
  37.0050      973
  37.0200      979
  37.0350     1031
  37.0500      967
  37.0650      897
  37.0800      883
  37.0950      815
  37.1100      772
  37.1250      742
  37.1400      715
  37.1550      730
  37.1700      764
  37.1850      719
  37.2000      741
  37.2150      768
  37.2300      843
  37.2450      900
  37.2600      973
  37.2750     1090
  37.2900     1242
  37.3050     1276
  37.3200     1332
  37.3350     1415
  37.3500     1450
  37.3650     1360
  37.3800     1254
  37.3950     1110
  37.4100     1010
  37.4250      873
  37.4400      780
  37.4550      781
  37.4700      759
  37.4850      767
  37.5000      734
  37.5150      772
  37.5300      843
  37.5450      888
  37.5600      913
  37.5750      911
  37.5900      942
  37.6050      911
  37.6200      840
  37.6350      789
  37.6500      745
  37.6650      740
  37.6800      722
  37.6950      740
  37.7100      755
  37.7250      778
  37.7400      771
  37.7550      780
  37.7700      812
  37.7850      753
  37.8000      717
  37.8150      741
  37.8300      770
  37.8450      748
  37.8600      793
  37.8750      897
  37.8900      998
  37.9050     1124
  37.9200     1167
  37.9350     1202
  37.9500     1188
  37.9650     1214
  37.9800     1091
  37.9950      979
  38.0100      961
  38.0250      972
  38.0400      910
  38.0550      834
  38.0700      912
  38.0850      978
  38.1000      967
  38.1150      983
  38.1300     1019
  38.1450     1025
  38.1600     1060
  38.1750     1134
  38.1900     1165
  38.2050     1152
  38.2200     1183
  38.2350     1137
  38.2500     1118
  38.2650     1047
  38.2800      926
  38.2950      912
  38.3100      810
  38.3250      772
  38.3400      747
  38.3550      721
  38.3700      684
  38.3850      697
  38.4000      690
  38.4150      697
  38.4300      696
  38.4450      731
  38.4600      767
  38.4750      816
  38.4900      838
  38.5050      907
  38.5200      959
  38.5350      994
  38.5500      986
  38.5650      975
  38.5800      866
  38.5950      814
  38.6100      797
  38.6250      741
  38.6400      627
  38.6550      627
  38.6700      613
  38.6850      590
  38.7000      666
  38.7150      641
  38.7300      658
  38.7450      659
  38.7600      677
  38.7750      661
  38.7900      723
  38.8050      704
  38.8200      754
  38.8350      807
  38.8500      868
  38.8650      979
  38.8800     1041
  38.8950     1100
  38.9100     1072
  38.9250     1000
  38.9400      942
  38.9550      844
  38.9700      816
  38.9850      707
  39.0000      673
  39.0150      656
  39.0300      636
  39.0450      626
  39.0600      716
  39.0750      705
  39.0900      657
  39.1050      681
  39.1200      700
  39.1350      682
  39.1500      660
  39.1650      681
  39.1800      613
  39.1950      605
  39.2100      615
  39.2250      609
  39.2400      604
  39.2550      591
  39.2700      590
  39.2850      608
  39.3000      575
  39.3150      617
  39.3300      645
  39.3450      628
  39.3600      658
  39.3750      688
  39.3900      656
  39.4050      667
  39.4200      666
  39.4350      678
  39.4500      634
  39.4650      602
  39.4800      585
  39.4950      608
  39.5100      638
  39.5250      619
  39.5400      664
  39.5550      687
  39.5700      802
  39.5850      817
  39.6000      832
  39.6150      833
  39.6300      880
  39.6450      897
  39.6600      887
  39.6750      888
  39.6900      820
  39.7050      768
  39.7200      723
  39.7350      713
  39.7500      683
  39.7650      692
  39.7800      688
  39.7950      699
  39.8100      699
  39.8250      732
  39.8400      728
  39.8550      793
  39.8700      785
  39.8850      787
  39.9000      864
  39.9150      809
  39.9300      807
  39.9450      811
  39.9600      762
  39.9750      705
  39.9900      765
  40.0050      741
  40.0200      730
  40.0350      741
  40.0500      770
  40.0650      834
  40.0800      817
  40.0950      815
  40.1100      737
  40.1250      756
  40.1400      712
  40.1550      741
  40.1700      743
  40.1850      744
  40.2000      754
  40.2150      725
  40.2300      708
  40.2450      702
  40.2600      647
  40.2750      615
  40.2900      599
  40.3050      607
  40.3200      629
  40.3350      622
  40.3500      626
  40.3650      656
  40.3800      689
  40.3950      705
  40.4100      708
  40.4250      794
  40.4400      817
  40.4550      848
  40.4700      838
  40.4850      838
  40.5000      828
  40.5150      798
  40.5300      835
  40.5450      804
  40.5600      759
  40.5750      760
  40.5900      720
  40.6050      759
  40.6200      790
  40.6350      853
  40.6500      914
  40.6650      944
  40.6800     1010
  40.6950     1014
  40.7100      954
  40.7250      947
  40.7400      902
  40.7550      871
  40.7700      864
  40.7850      838
  40.8000      751
  40.8150      746
  40.8300      717
  40.8450      674
  40.8600      650
  40.8750      683
  40.8900      649
  40.9050      576
  40.9200      563
  40.9350      599
  40.9500      591
  40.9650      619
  40.9800      634
  40.9950      529
  41.0100      576
  41.0250      555
  41.0400      557
  41.0550      562
  41.0700      576
  41.0850      546
  41.1000      542
  41.1150      534
  41.1300      532
  41.1450      513
  41.1600      541
  41.1750      508
  41.1900      510
  41.2050      540
  41.2200      512
  41.2350      546
  41.2500      589
  41.2650      607
  41.2800      600
  41.2950      638
  41.3100      618
  41.3250      708
  41.3400      730
  41.3550      778
  41.3700      801
  41.3850      822
  41.4000      829
  41.4150      861
  41.4300      898
  41.4450      944
  41.4600     1000
  41.4750      999
  41.4900     1033
  41.5050     1067
  41.5200     1027
  41.5350      995
  41.5500      953
  41.5650      863
  41.5800      798
  41.5950      790
  41.6100      748
  41.6250      693
  41.6400      735
  41.6550      718
  41.6700      685
  41.6850      724
  41.7000      758
  41.7150      722
  41.7300      709
  41.7450      731
  41.7600      650
  41.7750      671
  41.7900      693
  41.8050      702
  41.8200      653
  41.8350      662
  41.8500      640
  41.8650      651
  41.8800      652
  41.8950      651
  41.9100      714
  41.9250      684
  41.9400      687
  41.9550      696
  41.9700      700
  41.9850      695
  42.0000      683
  42.0150      725
  42.0300      790
  42.0450      825
  42.0600      895
  42.0750      914
  42.0900      910
  42.1050      877
  42.1200      836
  42.1350      823
  42.1500      783
  42.1650      727
  42.1800      711
  42.1950      710
  42.2100      691
  42.2250      768
  42.2400      786
  42.2550      790
  42.2700      842
  42.2850      846
  42.3000      914
  42.3150      946
  42.3300      970
  42.3450      996
  42.3600      915
  42.3750      866
  42.3900      888
  42.4050      812
  42.4200      782
  42.4350      790
  42.4500      803
  42.4650      716
  42.4800      684
  42.4950      688
  42.5100      661
  42.5250      593
  42.5400      599
  42.5550      613
  42.5700      616
  42.5850      619
  42.6000      551
  42.6150      588
  42.6300      588
  42.6450      588
  42.6600      638
  42.6750      633
  42.6900      717
  42.7050      685
  42.7200      712
  42.7350      787
  42.7500      832
  42.7650      780
  42.7800      764
  42.7950      797
  42.8100      850
  42.8250      872
  42.8400      954
  42.8550     1005
  42.8700     1022
  42.8850     1040
  42.9000     1044
  42.9150     1075
  42.9300      959
  42.9450      888
  42.9600      786
  42.9750      757
  42.9900      757
  43.0050      728
  43.0200      714
  43.0350      650
  43.0500      663
  43.0650      682
  43.0800      641
  43.0950      622
  43.1100      656
  43.1250      716
  43.1400      709
  43.1550      720
  43.1700      759
  43.1850      794
  43.2000      754
  43.2150      820
  43.2300      840
  43.2450      856
  43.2600      880
  43.2750      921
  43.2900      892
  43.3050      918
  43.3200      900
  43.3350      879
  43.3500      874
  43.3650      861
  43.3800      835
  43.3950      791
  43.4100      733
  43.4250      644
  43.4400      638
  43.4550      638
  43.4700      622
  43.4850      629
  43.5000      657
  43.5150      671
  43.5300      679
  43.5450      687
  43.5600      716
  43.5750      779
  43.5900      815
  43.6050      770
  43.6200      766
  43.6350      810
  43.6500      780
  43.6650      736
  43.6800      657
  43.6950      671
  43.7100      646
  43.7250      675
  43.7400      687
  43.7550      689
  43.7700      728
  43.7850      753
  43.8000      757
  43.8150      706
  43.8300      661
  43.8450      650
  43.8600      626
  43.8750      579
  43.8900      586
  43.9050      600
  43.9200      524
  43.9350      540
  43.9500      574
  43.9650      552
  43.9800      551
  43.9950      584
  44.0100      625
  44.0250      594
  44.0400      583
  44.0550      603
  44.0700      648
  44.0850      628
  44.1000      621
  44.1150      645
  44.1300      627
  44.1450      616
  44.1600      600
  44.1750      594
  44.1900      533
  44.2050      518
  44.2200      542
  44.2350      549
  44.2500      511
  44.2650      525
  44.2800      585
  44.2950      600
  44.3100      563
  44.3250      585
  44.3400      575
  44.3550      589
  44.3700      599
  44.3850      599
  44.4000      613
  44.4150      644
  44.4300      619
  44.4450      653
  44.4600      684
  44.4750      694
  44.4900      781
  44.5050      731
  44.5200      769
  44.5350      774
  44.5500      799
  44.5650      811
  44.5800      835
  44.5950      815
  44.6100      824
  44.6250      779
  44.6400      703
  44.6550      709
  44.6700      614
  44.6850      604
  44.7000      555
  44.7150      572
  44.7300      542
  44.7450      484
  44.7600      492
  44.7750      491
  44.7900      457
  44.8050      475
  44.8200      477
  44.8350      483
  44.8500      476
  44.8650      481
  44.8800      465
  44.8950      468
  44.9100      465
  44.9250      482
  44.9400      462
  44.9550      479
  44.9700      505
  44.9850      540
  45.0000      557
  45.0150      580
  45.0300      551
  45.0450      514
  45.0600      508
  45.0750      487
  45.0900      497
  45.1050      481
  45.1200      462
  45.1350      472
  45.1500      462
  45.1650      496
  45.1800      487
  45.1950      483
  45.2100      492
  45.2250      512
  45.2400      510
  45.2550      542
  45.2700      571
  45.2850      632
  45.3000      600
  45.3150      616
  45.3300      641
  45.3450      598
  45.3600      576
  45.3750      569
  45.3900      534
  45.4050      523
  45.4200      578
  45.4350      569
  45.4500      637
  45.4650      698
  45.4800      679
  45.4950      730
  45.5100      714
  45.5250      713
  45.5400      705
  45.5550      660
  45.5700      619
  45.5850      587
  45.6000      576
  45.6150      549
  45.6300      495
  45.6450      468
  45.6600      492
  45.6750      473
  45.6900      474
  45.7050      429
  45.7200      449
  45.7350      408
  45.7500      423
  45.7650      427
  45.7800      458
  45.7950      447
  45.8100      437
  45.8250      409
  45.8400      441
  45.8550      481
  45.8700      465
  45.8850      477
  45.9000      473
  45.9150      452
  45.9300      444
  45.9450      482
  45.9600      505
  45.9750      529
  45.9900      524
  46.0050      502
  46.0200      479
  46.0350      513
  46.0500      544
  46.0650      557
  46.0800      533
  46.0950      562
  46.1100      563
  46.1250      534
  46.1400      533
  46.1550      525
  46.1700      485
  46.1850      473
  46.2000      464
  46.2150      436
  46.2300      502
  46.2450      475
  46.2600      479
  46.2750      505
  46.2900      467
  46.3050      517
  46.3200      512
  46.3350      508
  46.3500      489
  46.3650      477
  46.3800      443
  46.3950      456
  46.4100      435
  46.4250      453
  46.4400      444
  46.4550      444
  46.4700      429
  46.4850      428
  46.5000      405
  46.5150      394
  46.5300      421
  46.5450      429
  46.5600      402
  46.5750      400
  46.5900      430
  46.6050      475
  46.6200      456
  46.6350      434
  46.6500      415
  46.6650      422
  46.6800      421
  46.6950      415
  46.7100      437
  46.7250      434
  46.7400      401
  46.7550      389
  46.7700      382
  46.7850      407
  46.8000      390
  46.8150      411
  46.8300      383
  46.8450      415
  46.8600      422
  46.8750      435
  46.8900      420
  46.9050      416
  46.9200      428
  46.9350      430
  46.9500      411
  46.9650      424
  46.9800      441
  46.9950      462
  47.0100      431
  47.0250      444
  47.0400      490
  47.0550      497
  47.0700      525
  47.0850      499
  47.1000      484
  47.1150      500
  47.1300      541
  47.1450      519
  47.1600      534
  47.1750      541
  47.1900      550
  47.2050      539
  47.2200      529
  47.2350      550
  47.2500      579
  47.2650      583
  47.2800      534
  47.2950      574
  47.3100      643
  47.3250      586
  47.3400      579
  47.3550      605
  47.3700      650
  47.3850      672
  47.4000      637
  47.4150      640
  47.4300      607
  47.4450      631
  47.4600      613
  47.4750      603
  47.4900      590
  47.5050      546
  47.5200      558
  47.5350      538
  47.5500      532
  47.5650      513
  47.5800      521
  47.5950      490
  47.6100      510
  47.6250      485
  47.6400      494
  47.6550      494
  47.6700      499
  47.6850      545
  47.7000      539
  47.7150      531
  47.7300      548
  47.7450      529
  47.7600      493
  47.7750      489
  47.7900      467
  47.8050      491
  47.8200      473
  47.8350      453
  47.8500      468
  47.8650      467
  47.8800      481
  47.8950      492
  47.9100      476
  47.9250      505
  47.9400      525
  47.9550      540
  47.9700      535
  47.9850      549
  48.0000      538
  48.0150      517
  48.0300      482
  48.0450      490
  48.0600      474
  48.0750      499
  48.0900      476
  48.1050      500
  48.1200      512
  48.1350      503
  48.1500      518
  48.1650      527
  48.1800      504
  48.1950      520
  48.2100      460
  48.2250      463
  48.2400      486
  48.2550      466
  48.2700      455
  48.2850      457
  48.3000      464
  48.3150      452
  48.3300      426
  48.3450      439
  48.3600      421
  48.3750      451
  48.3900      474
  48.4050      458
  48.4200      464
  48.4350      429
  48.4500      437
  48.4650      436
  48.4800      404
  48.4950      403
  48.5100      409
  48.5250      421
  48.5400      379
  48.5550      394
  48.5700      376
  48.5850      384
  48.6000      360
  48.6150      403
  48.6300      409
  48.6450      393
  48.6600      428
  48.6750      412
  48.6900      477
  48.7050      459
  48.7200      463
  48.7350      447
  48.7500      420
  48.7650      426
  48.7800      422
  48.7950      388
  48.8100      392
  48.8250      410
  48.8400      436
  48.8550      433
  48.8700      459
  48.8850      450
  48.9000      438
  48.9150      421
  48.9300      440
  48.9450      454
  48.9600      444
  48.9750      457
  48.9900      451
  49.0050      452
  49.0200      480
  49.0350      474
  49.0500      514
  49.0650      530
  49.0800      518
  49.0950      543
  49.1100      552
  49.1250      571
  49.1400      543
  49.1550      569
  49.1700      567
  49.1850      591
  49.2000      551
  49.2150      561
  49.2300      564
  49.2450      584
  49.2600      557
  49.2750      556
  49.2900      582
  49.3050      528
  49.3200      563
  49.3350      517
  49.3500      520
  49.3650      458
  49.3800      480
  49.3950      512
  49.4100      501
  49.4250      472
  49.4400      449
  49.4550      446
  49.4700      441
  49.4850      480
  49.5000      512
  49.5150      500
  49.5300      473
  49.5450      540
  49.5600      527
  49.5750      520
  49.5900      493
  49.6050      475
  49.6200      495
  49.6350      482
  49.6500      464
  49.6650      500
  49.6800      496
  49.6950      472
  49.7100      468
  49.7250      480
  49.7400      481
  49.7550      433
  49.7700      433
  49.7850      440
  49.8000      451
  49.8150      431
  49.8300      426
  49.8450      425
  49.8600      424
  49.8750      408
  49.8900      405
  49.9050      447
  49.9200      421
  49.9350      490
  49.9500      464
  49.9650      439
  49.9800      468
  49.9950      520
  50.0100      472
  50.0250      540
  50.0400      553
  50.0550      546
  50.0700      556
  50.0850      563
  50.1000      588
  50.1150      570
  50.1300      565
  50.1450      619
  50.1600      601
  50.1750      627
  50.1900      625
  50.2050      663
  50.2200      657
  50.2350      639
  50.2500      619
  50.2650      599
  50.2800      571
  50.2950      583
  50.3100      596
  50.3250      589
  50.3400      547
  50.3550      513
  50.3700      477
  50.3850      533
  50.4000      485
  50.4150      470
  50.4300      498
  50.4450      495
  50.4600      488
  50.4750      487
  50.4900      481
  50.5050      442
  50.5200      446
  50.5350      442
  50.5500      402
  50.5650      386
  50.5800      381
  50.5950      388
  50.6100      379
  50.6250      394
  50.6400      413
  50.6550      398
  50.6700      389
  50.6850      384
  50.7000      413
  50.7150      410
  50.7300      362
  50.7450      401
  50.7600      406
  50.7750      384
  50.7900      395
  50.8050      388
  50.8200      407
  50.8350      419
  50.8500      435
  50.8650      441
  50.8800      426
  50.8950      416
  50.9100      444
  50.9250      474
  50.9400      445
  50.9550      456
  50.9700      497
  50.9850      465
  51.0000      494
  51.0150      475
  51.0300      495
  51.0450      493
  51.0600      508
  51.0750      493
  51.0900      529
  51.1050      529
  51.1200      542
  51.1350      522
  51.1500      518
  51.1650      512
  51.1800      519
  51.1950      550
  51.2100      518
  51.2250      462
  51.2400      468
  51.2550      490
  51.2700      517
  51.2850      492
  51.3000      481
  51.3150      522
  51.3300      536
  51.3450      527
  51.3600      525
  51.3750      533
  51.3900      561
  51.4050      585
  51.4200      566
  51.4350      547
  51.4500      540
  51.4650      545
  51.4800      504
  51.4950      478
  51.5100      487
  51.5250      477
  51.5400      436
  51.5550      505
  51.5700      461
  51.5850      429
  51.6000      463
  51.6150      487
  51.6300      469
  51.6450      471
  51.6600      488
  51.6750      504
  51.6900      521
  51.7050      555
  51.7200      600
  51.7350      597
  51.7500      622
  51.7650      633
  51.7800      701
  51.7950      737
  51.8100      749
  51.8250      744
  51.8400      738
  51.8550      691
  51.8700      671
  51.8850      683
  51.9000      664
  51.9150      612
  51.9300      622
  51.9450      589
  51.9600      600
  51.9750      585
  51.9900      612
  52.0050      593
  52.0200      561
  52.0350      584
  52.0500      626
  52.0650      593
  52.0800      587
  52.0950      596
  52.1100      569
  52.1250      584
  52.1400      566
  52.1550      519
  52.1700      510
  52.1850      527
  52.2000      526
  52.2150      509
  52.2300      522
  52.2450      528
  52.2600      493
  52.2750      529
  52.2900      522
  52.3050      531
  52.3200      516
  52.3350      553
  52.3500      532
  52.3650      535
  52.3800      518
  52.3950      544
  52.4100      578
  52.4250      585
  52.4400      600
  52.4550      611
  52.4700      626
  52.4850      644
  52.5000      612
  52.5150      677
  52.5300      631
  52.5450      642
  52.5600      625
  52.5750      598
  52.5900      569
  52.6050      604
  52.6200      541
  52.6350      475
  52.6500      500
  52.6650      502
  52.6800      492
  52.6950      521
  52.7100      514
  52.7250      533
  52.7400      526
  52.7550      499
  52.7700      501
  52.7850      483
  52.8000      510
  52.8150      526
  52.8300      525
  52.8450      485
  52.8600      459
  52.8750      498
  52.8900      517
  52.9050      489
  52.9200      517
  52.9350      502
  52.9500      522
  52.9650      540
  52.9800      560
  52.9950      574
  53.0100      539
  53.0250      502
  53.0400      520
  53.0550      513
  53.0700      518
  53.0850      508
  53.1000      511
  53.1150      509
  53.1300      472
  53.1450      458
  53.1600      492
  53.1750      495
  53.1900      475
  53.2050      455
  53.2200      448
  53.2350      435
  53.2500      444
  53.2650      430
  53.2800      441
  53.2950      465
  53.3100      476
  53.3250      474
  53.3400      426
  53.3550      480
  53.3700      442
  53.3850      462
  53.4000      450
  53.4150      440
  53.4300      421
  53.4450      433
  53.4600      464
  53.4750      453
  53.4900      464
  53.5050      475
  53.5200      495
  53.5350      486
  53.5500      471
  53.5650      491
  53.5800      520
  53.5950      508
  53.6100      524
  53.6250      523
  53.6400      541
  53.6550      556
  53.6700      529
  53.6850      515
  53.7000      533
  53.7150      537
  53.7300      506
  53.7450      520
  53.7600      495
  53.7750      530
  53.7900      534
  53.8050      490
  53.8200      512
  53.8350      552
  53.8500      524
  53.8650      548
  53.8800      607
  53.8950      582
  53.9100      611
  53.9250      585
  53.9400      632
  53.9550      636
  53.9700      625
  53.9850      626
  54.0000      624
  54.0150      602
  54.0300      528
  54.0450      551
  54.0600      606
  54.0750      542
  54.0900      550
  54.1050      536
  54.1200      497
  54.1350      503
  54.1500      515
  54.1650      514
  54.1800      478
  54.1950      509
  54.2100      515
  54.2250      464
  54.2400      461
  54.2550      437
  54.2700      498
  54.2850      508
  54.3000      471
  54.3150      468
  54.3300      423
  54.3450      408
  54.3600      438
  54.3750      445
  54.3900      424
  54.4050      437
  54.4200      407
  54.4350      404
  54.4500      447
  54.4650      401
  54.4800      436
  54.4950      418
  54.5100      443
  54.5250      439
  54.5400      397
  54.5550      400
  54.5700      433
  54.5850      426
  54.6000      391
  54.6150      406
  54.6300      435
  54.6450      428
  54.6600      440
  54.6750      420
  54.6900      397
  54.7050      430
  54.7200      441
  54.7350      463
  54.7500      499
  54.7650      502
  54.7800      457
  54.7950      446
  54.8100      452
  54.8250      452
  54.8400      461
  54.8550      469
  54.8700      462
  54.8850      453
  54.9000      460
  54.9150      463
  54.9300      472
  54.9450      415
  54.9600      417
  54.9750      465
  54.9900      436
  55.0050      439
  55.0200      442
  55.0350      442
  55.0500      451
  55.0650      424
  55.0800      440
  55.0950      373
  55.1100      372
  55.1250      410
  55.1400      419
  55.1550      389
  55.1700      414
  55.1850      418
  55.2000      407
  55.2150      457
  55.2300      424
  55.2450      422
  55.2600      429
  55.2750      428
  55.2900      423
  55.3050      465
  55.3200      435
  55.3350      426
  55.3500      412
  55.3650      382
  55.3800      400
  55.3950      385
  55.4100      407
  55.4250      437
  55.4400      420
  55.4550      399
  55.4700      420
  55.4850      410
  55.5000      412
  55.5150      418
  55.5300      392
  55.5450      398
  55.5600      432
  55.5750      415
  55.5900      417
  55.6050      421
  55.6200      436
  55.6350      489
  55.6500      472
  55.6650      449
  55.6800      464
  55.6950      448
  55.7100      468
  55.7250      465
  55.7400      478
  55.7550      500
  55.7700      513
  55.7850      549
  55.8000      509
  55.8150      531
  55.8300      528
  55.8450      530
  55.8600      582
  55.8750      587
  55.8900      573
  55.9050      512
  55.9200      538
  55.9350      547
  55.9500      572
  55.9650      591
  55.9800      557
  55.9950      586
  56.0100      581
  56.0250      552
  56.0400      557
  56.0550      554
  56.0700      506
  56.0850      489
  56.1000      474
  56.1150      477
  56.1300      457
  56.1450      493
  56.1600      453
  56.1750      449
  56.1900      476
  56.2050      501
  56.2200      463
  56.2350      446
  56.2500      458
  56.2650      456
  56.2800      470
  56.2950      469
  56.3100      457
  56.3250      446
  56.3400      442
  56.3550      405
  56.3700      419
  56.3850      406
  56.4000      409
  56.4150      423
  56.4300      427
  56.4450      407
  56.4600      463
  56.4750      473
  56.4900      450
  56.5050      446
  56.5200      470
  56.5350      491
  56.5500      499
  56.5650      489
  56.5800      486
  56.5950      466
  56.6100      439
  56.6250      450
  56.6400      465
  56.6550      447
  56.6700      478
  56.6850      442
  56.7000      434
  56.7150      450
  56.7300      470
  56.7450      477
  56.7600      476
  56.7750      479
  56.7900      485
  56.8050      453
  56.8200      462
  56.8350      484
  56.8500      483
  56.8650      462
  56.8800      483
  56.8950      445
  56.9100      455
  56.9250      497
  56.9400      496
  56.9550      467
  56.9700      443
  56.9850      465
  57.0000      480
  57.0150      480
  57.0300      499
  57.0450      448
  57.0600      449
  57.0750      493
  57.0900      508
  57.1050      515
  57.1200      510
  57.1350      486
  57.1500      561
  57.1650      516
  57.1800      526
  57.1950      501
  57.2100      507
  57.2250      502
  57.2400      481
  57.2550      462
  57.2700      471
  57.2850      516
  57.3000      475
  57.3150      505
  57.3300      505
  57.3450      500
  57.3600      506
  57.3750      492
  57.3900      492
  57.4050      508
  57.4200      482
  57.4350      522
  57.4500      535
  57.4650      528
  57.4800      514
  57.4950      509
  57.5100      512
  57.5250      514
  57.5400      518
  57.5550      486
  57.5700      516
  57.5850      500
  57.6000      460
  57.6150      446
  57.6300      480
  57.6450      474
  57.6600      478
  57.6750      446
  57.6900      454
  57.7050      479
  57.7200      484
  57.7350      469
  57.7500      458
  57.7650      450
  57.7800      447
  57.7950      465
  57.8100      444
  57.8250      442
  57.8400      462
  57.8550      439
  57.8700      405
  57.8850      417
  57.9000      434
  57.9150      414
  57.9300      403
  57.9450      429
  57.9600      427
  57.9750      427
  57.9900      390
  58.0050      442
  58.0200      423
  58.0350      378
  58.0500      421
  58.0650      427
  58.0800      405
  58.0950      416
  58.1100      384
  58.1250      430
  58.1400      425
  58.1550      445
  58.1700      420
  58.1850      404
  58.2000      403
  58.2150      440
  58.2300      436
  58.2450      449
  58.2600      482
  58.2750      483
  58.2900      447
  58.3050      471
  58.3200      493
  58.3350      472
  58.3500      481
  58.3650      498
  58.3800      538
  58.3950      510
  58.4100      491
  58.4250      466
  58.4400      465
  58.4550      481
  58.4700      473
  58.4850      457
  58.5000      430
  58.5150      435
  58.5300      435
  58.5450      441
  58.5600      451
  58.5750      446
  58.5900      403
  58.6050      454
  58.6200      444
  58.6350      442
  58.6500      437
  58.6650      409
  58.6800      397
  58.6950      406
  58.7100      431
  58.7250      403
  58.7400      412
  58.7550      439
  58.7700      432
  58.7850      417
  58.8000      418
  58.8150      402
  58.8300      423
  58.8450      436
  58.8600      421
  58.8750      404
  58.8900      449
  58.9050      431
  58.9200      423
  58.9350      409
  58.9500      427
  58.9650      447
  58.9800      412
  58.9950      456
  59.0100      453
  59.0250      429
  59.0400      414
  59.0550      405
  59.0700      436
  59.0850      435
  59.1000      402
  59.1150      410
  59.1300      432
  59.1450      427
  59.1600      430
  59.1750      441
  59.1900      450
  59.2050      427
  59.2200      403
  59.2350      429
  59.2500      466
  59.2650      452
  59.2800      433
  59.2950      454
  59.3100      460
  59.3250      477
  59.3400      475
  59.3550      486
  59.3700      510
  59.3850      499
  59.4000      480
  59.4150      505
  59.4300      514
  59.4450      474
  59.4600      517
  59.4750      491
  59.4900      461
  59.5050      486
  59.5200      478
  59.5350      447
  59.5500      456
  59.5650      464
  59.5800      444
  59.5950      436
  59.6100      456
  59.6250      427
  59.6400      421
  59.6550      412
  59.6700      407
  59.6850      382
  59.7000      389
  59.7150      386
  59.7300      369
  59.7450      374
  59.7600      352
  59.7750      381
  59.7900      390
  59.8050      386
  59.8200      379
  59.8350      370
  59.8500      369
  59.8650      389
  59.8800      354
  59.8950      355
  59.9100      360
  59.9250      365
  59.9400      376
  59.9550      383
  59.9700      352
  59.9850      360
  60.0000      358
  60.0150      403
  60.0300      395
  60.0450      356
  60.0600      367
  60.0750      374
  60.0900      351
  60.1050      357
  60.1200      376
  60.1350      353
  60.1500      374
  60.1650      368
  60.1800      405
  60.1950      385
  60.2100      417
  60.2250      370
  60.2400      405
  60.2550      441
  60.2700      420
  60.2850      459
  60.3000      469
  60.3150      422
  60.3300      421
  60.3450      398
  60.3600      416
  60.3750      415
  60.3900      397
  60.4050      390
  60.4200      409
  60.4350      394
  60.4500      390
  60.4650      427
  60.4800      416
  60.4950      420
  60.5100      419
  60.5250      411
  60.5400      379
  60.5550      363
  60.5700      402
  60.5850      410
  60.6000      423
  60.6150      403
  60.6300      378
  60.6450      409
  60.6600      394
  60.6750      403
  60.6900      366
  60.7050      395
  60.7200      389
  60.7350      400
  60.7500      397
  60.7650      395
  60.7800      373
  60.7950      412
  60.8100      421
  60.8250      419
  60.8400      433
  60.8550      416
  60.8700      441
  60.8850      380
  60.9000      419
  60.9150      401
  60.9300      394
  60.9450      403
  60.9600      420
  60.9750      392
  60.9900      414
  61.0050      385
  61.0200      386
  61.0350      400
  61.0500      386
  61.0650      414
  61.0800      373
  61.0950      369
  61.1100      386
  61.1250      397
  61.1400      395
  61.1550      377
  61.1700      410
  61.1850      392
  61.2000      378
  61.2150      364
  61.2300      338
  61.2450      366
  61.2600      353
  61.2750      349
  61.2900      365
  61.3050      366
  61.3200      387
  61.3350      374
  61.3500      363
  61.3650      373
  61.3800      370
  61.3950      375
  61.4100      354
  61.4250      364
  61.4400      381
  61.4550      367
  61.4700      359
  61.4850      356
  61.5000      352
  61.5150      366
  61.5300      373
  61.5450      372
  61.5600      363
  61.5750      385
  61.5900      356
  61.6050      374
  61.6200      366
  61.6350      374
  61.6500      393
  61.6650      398
  61.6800      359
  61.6950      373
  61.7100      374
  61.7250      374
  61.7400      402
  61.7550      377
  61.7700      377
