   4.5000      741
   4.5150      729
   4.5300      730
   4.5450      724
   4.5600      787
   4.5750      739
   4.5900      754
   4.6050      747
   4.6200      678
   4.6350      730
   4.6500      750
   4.6650      759
   4.6800      733
   4.6950      743
   4.7100      753
   4.7250      789
   4.7400      736
   4.7550      747
   4.7700      759
   4.7850      706
   4.8000      735
   4.8150      743
   4.8300      751
   4.8450      727
   4.8600      742
   4.8750      750
   4.8900      754
   4.9050      819
   4.9200      772
   4.9350      759
   4.9500      811
   4.9650      818
   4.9800      808
   4.9950      801
   5.0100      820
   5.0250      824
   5.0400      866
   5.0550      849
   5.0700      912
   5.0850      936
   5.1000      906
   5.1150      973
   5.1300      923
   5.1450      996
   5.1600     1067
   5.1750     1124
   5.1900     1178
   5.2050     1182
   5.2200     1195
   5.2350     1318
   5.2500     1502
   5.2650     1503
   5.2800     1328
   5.2950      980
   5.3100      811
   5.3250      734
   5.3400      729
   5.3550      737
   5.3700      713
   5.3850      715
   5.4000      745
   5.4150      687
   5.4300      728
   5.4450      702
   5.4600      740
   5.4750      756
   5.4900      708
   5.5050      752
   5.5200      731
   5.5350      723
   5.5500      660
   5.5650      687
   5.5800      707
   5.5950      695
   5.6100      670
   5.6250      690
   5.6400      678
   5.6550      690
   5.6700      700
   5.6850      676
   5.7000      740
   5.7150      706
   5.7300      744
   5.7450      701
   5.7600      710
   5.7750      708
   5.7900      684
   5.8050      705
   5.8200      689
   5.8350      703
   5.8500      678
   5.8650      702
   5.8800      740
   5.8950      751
   5.9100      755
   5.9250      723
   5.9400      730
   5.9550      692
   5.9700      703
   5.9850      716
   6.0000      715
   6.0150      701
   6.0300      726
   6.0450      709
   6.0600      699
   6.0750      668
   6.0900      674
   6.1050      733
   6.1200      768
   6.1350      720
   6.1500      719
   6.1650      710
   6.1800      730
   6.1950      740
   6.2100      774
   6.2250      697
   6.2400      665
   6.2550      686
   6.2700      693
   6.2850      687
   6.3000      689
   6.3150      708
   6.3300      703
   6.3450      737
   6.3600      744
   6.3750      754
   6.3900      711
   6.4050      694
   6.4200      722
   6.4350      730
   6.4500      737
   6.4650      746
   6.4800      783
   6.4950      758
   6.5100      777
   6.5250      760
   6.5400      776
   6.5550      750
   6.5700      770
   6.5850      767
   6.6000      773
   6.6150      827
   6.6300      830
   6.6450      836
   6.6600      871
   6.6750      843
   6.6900      892
   6.7050      887
   6.7200      935
   6.7350      960
   6.7500      997
   6.7650     1051
   6.7800     1108
   6.7950     1152
   6.8100     1273
   6.8250     1362
   6.8400     1440
   6.8550     1416
   6.8700     1506
   6.8850     1592
   6.9000     1757
   6.9150     1986
   6.9300     2174
   6.9450     2440
   6.9600     2695
   6.9750     2927
   6.9900     3361
   7.0050     3864
   7.0200     4440
   7.0350     5341
   7.0500     6016
   7.0650     6264
   7.0800     6198
   7.0950     6347
   7.1100     7113
   7.1250     8179
   7.1400     9026
   7.1550    10025
   7.1700    11512
   7.1850    13501
   7.2000    16669
   7.2150    20698
   7.2300    24829
   7.2450    26069
   7.2600    21137
   7.2750    12194
   7.2900     5769
   7.3050     2977
   7.3200     1994
   7.3350     1605
   7.3500     1317
   7.3650     1218
   7.3800     1189
   7.3950     1196
   7.4100     1138
   7.4250     1076
   7.4400     1094
   7.4550     1132
   7.4700     1174
   7.4850     1228
   7.5000     1284
   7.5150     1366
   7.5300     1458
   7.5450     1592
   7.5600     1714
   7.5750     1883
   7.5900     2187
   7.6050     2386
   7.6200     2591
   7.6350     2927
   7.6500     3289
   7.6650     3704
   7.6800     4177
   7.6950     4761
   7.7100     5528
   7.7250     6495
   7.7400     7637
   7.7550     9166
   7.7700    11350
   7.7850    13875
   7.8000    16614
   7.8150    17259
   7.8300    13858
   7.8450     8049
   7.8600     3838
   7.8750     2152
   7.8900     1538
   7.9050     1220
   7.9200     1099
   7.9350     1015
   7.9500      931
   7.9650      896
   7.9800      859
   7.9950      841
   8.0100      775
   8.0250      752
   8.0400      770
   8.0550      787
   8.0700      735
   8.0850      743
   8.1000      708
   8.1150      747
   8.1300      707
   8.1450      729
   8.1600      714
   8.1750      708
   8.1900      733
   8.2050      756
   8.2200      732
   8.2350      735
   8.2500      684
   8.2650      720
   8.2800      749
   8.2950      713
   8.3100      755
   8.3250      729
   8.3400      746
   8.3550      761
   8.3700      770
   8.3850      745
   8.4000      850
   8.4150      898
   8.4300      903
   8.4450      916
   8.4600      822
   8.4750      736
   8.4900      704
   8.5050      734
   8.5200      725
   8.5350      668
   8.5500      683
   8.5650      694
   8.5800      705
   8.5950      668
   8.6100      679
   8.6250      670
   8.6400      695
   8.6550      694
   8.6700      654
   8.6850      662
   8.7000      650
   8.7150      661
   8.7300      646
   8.7450      643
   8.7600      695
   8.7750      676
   8.7900      728
   8.8050      709
   8.8200      647
   8.8350      634
   8.8500      665
   8.8650      673
   8.8800      650
   8.8950      676
   8.9100      736
   8.9250      696
   8.9400      697
   8.9550      669
   8.9700      668
   8.9850      636
   9.0000      682
   9.0150      680
   9.0300      675
   9.0450      695
   9.0600      697
   9.0750      722
   9.0900      725
   9.1050      698
   9.1200      713
   9.1350      734
   9.1500      722
   9.1650      697
   9.1800      691
   9.1950      673
   9.2100      667
   9.2250      686
   9.2400      666
   9.2550      643
   9.2700      639
   9.2850      638
   9.3000      683
   9.3150      699
   9.3300      675
   9.3450      687
   9.3600      668
   9.3750      676
   9.3900      694
   9.4050      667
   9.4200      704
   9.4350      686
   9.4500      718
   9.4650      705
   9.4800      693
   9.4950      729
   9.5100      725
   9.5250      696
   9.5400      716
   9.5550      762
   9.5700      795
   9.5850      801
   9.6000      786
   9.6150      822
   9.6300      844
   9.6450      898
   9.6600      924
   9.6750     1011
   9.6900     1077
   9.7050     1033
   9.7200      893
   9.7350      772
   9.7500      800
   9.7650      825
   9.7800      806
   9.7950      842
   9.8100      850
   9.8250      864
   9.8400      922
   9.8550      995
   9.8700      990
   9.8850     1024
   9.9000     1138
   9.9150     1219
   9.9300     1346
   9.9450     1566
   9.9600     1784
   9.9750     2125
   9.9900     2532
  10.0050     2780
  10.0200     2709
  10.0350     2363
  10.0500     1955
  10.0650     1836
  10.0800     1840
  10.0950     2035
  10.1100     2268
  10.1250     2287
  10.1400     2044
  10.1550     1839
  10.1700     1474
  10.1850     1286
  10.2000     1240
  10.2150     1212
  10.2300     1209
  10.2450     1299
  10.2600     1407
  10.2750     1510
  10.2900     1730
  10.3050     2065
  10.3200     2357
  10.3350     2721
  10.3500     3337
  10.3650     3792
  10.3800     4175
  10.3950     4061
  10.4100     3694
  10.4250     3665
  10.4400     3831
  10.4550     4409
  10.4700     5174
  10.4850     6451
  10.5000     8406
  10.5150    10771
  10.5300    13370
  10.5450    15193
  10.5600    14128
  10.5750    10231
  10.5900     5974
  10.6050     3191
  10.6200     1867
  10.6350     1520
  10.6500     1403
  10.6650     1380
  10.6800     1419
  10.6950     1430
  10.7100     1443
  10.7250     1456
  10.7400     1421
  10.7550     1379
  10.7700     1337
  10.7850     1394
  10.8000     1575
  10.8150     1750
  10.8300     1972
  10.8450     2059
  10.8600     2159
  10.8750     1930
  10.8900     1553
  10.9050     1245
  10.9200     1109
  10.9350     1063
  10.9500      987
  10.9650      999
  10.9800     1035
  10.9950      989
  11.0100      945
  11.0250      869
  11.0400      832
  11.0550      833
  11.0700      782
  11.0850      807
  11.1000      808
  11.1150      849
  11.1300      797
  11.1450      804
  11.1600      751
  11.1750      786
  11.1900      780
  11.2050      784
  11.2200      817
  11.2350      807
  11.2500      832
  11.2650      858
  11.2800      865
  11.2950      959
  11.3100     1052
  11.3250     1143
  11.3400     1245
  11.3550     1422
  11.3700     1638
  11.3850     1756
  11.4000     1754
  11.4150     1537
  11.4300     1200
  11.4450      968
  11.4600      833
  11.4750      761
  11.4900      807
  11.5050      808
  11.5200      785
  11.5350      799
  11.5500      849
  11.5650      851
  11.5800      919
  11.5950      919
  11.6100      991
  11.6250     1059
  11.6400     1112
  11.6550     1265
  11.6700     1381
  11.6850     1605
  11.7000     1866
  11.7150     2120
  11.7300     2564
  11.7450     3309
  11.7600     4090
  11.7750     5295
  11.7900     6280
  11.8050     6261
  11.8200     5178
  11.8350     3462
  11.8500     1990
  11.8650     1265
  11.8800     1003
  11.8950      923
  11.9100      910
  11.9250      917
  11.9400      894
  11.9550      928
  11.9700     1021
  11.9850     1097
  12.0000     1220
  12.0150     1298
  12.0300     1349
  12.0450     1353
  12.0600     1327
  12.0750     1307
  12.0900     1360
  12.1050     1558
  12.1200     1830
  12.1350     2179
  12.1500     2698
  12.1650     3429
  12.1800     3901
  12.1950     4285
  12.2100     3944
  12.2250     3085
  12.2400     2191
  12.2550     1512
  12.2700     1104
  12.2850      881
  12.3000      820
  12.3150      852
  12.3300      782
  12.3450      780
  12.3600      783
  12.3750      821
  12.3900      789
  12.4050      832
  12.4200      873
  12.4350      904
  12.4500      995
  12.4650     1053
  12.4800     1175
  12.4950     1328
  12.5100     1480
  12.5250     1725
  12.5400     2010
  12.5550     2431
  12.5700     2993
  12.5850     3735
  12.6000     4646
  12.6150     5912
  12.6300     7170
  12.6450     7829
  12.6600     7285
  12.6750     5774
  12.6900     4163
  12.7050     2798
  12.7200     1978
  12.7350     1639
  12.7500     1544
  12.7650     1477
  12.7800     1492
  12.7950     1771
  12.8100     1873
  12.8250     2199
  12.8400     2612
  12.8550     2952
  12.8700     2990
  12.8850     2759
  12.9000     2311
  12.9150     1873
  12.9300     1575
  12.9450     1449
  12.9600     1452
  12.9750     1577
  12.9900     1710
  13.0050     1968
  13.0200     2375
  13.0350     2868
  13.0500     3406
  13.0650     3996
  13.0800     3962
  13.0950     3404
  13.1100     2827
  13.1250     2306
  13.1400     2125
  13.1550     2309
  13.1700     2687
  13.1850     3085
  13.2000     3144
  13.2150     2871
  13.2300     2384
  13.2450     1773
  13.2600     1398
  13.2750     1218
  13.2900     1152
  13.3050     1082
  13.3200     1076
  13.3350     1140
  13.3500     1089
  13.3650     1146
  13.3800     1236
  13.3950     1411
  13.4100     1547
  13.4250     1739
  13.4400     1928
  13.4550     1956
  13.4700     1835
  13.4850     1575
  13.5000     1424
  13.5150     1213
  13.5300     1172
  13.5450     1112
  13.5600     1091
  13.5750     1214
  13.5900     1267
  13.6050     1392
  13.6200     1601
  13.6350     1888
  13.6500     2249
  13.6650     2716
  13.6800     3177
  13.6950     3386
  13.7100     2955
  13.7250     2395
  13.7400     1698
  13.7550     1243
  13.7700     1088
  13.7850      917
  13.8000      868
  13.8150      883
  13.8300      862
  13.8450      877
  13.8600      895
  13.8750      859
  13.8900      819
  13.9050      754
  13.9200      711
  13.9350      688
  13.9500      708
  13.9650      655
  13.9800      635
  13.9950      681
  14.0100      709
  14.0250      665
  14.0400      705
  14.0550      699
  14.0700      723
  14.0850      717
  14.1000      731
  14.1150      757
  14.1300      784
  14.1450      811
  14.1600      927
  14.1750      946
  14.1900     1141
  14.2050     1251
  14.2200     1448
  14.2350     1764
  14.2500     2219
  14.2650     2659
  14.2800     3130
  14.2950     3317
  14.3100     2998
  14.3250     2369
  14.3400     1762
  14.3550     1349
  14.3700     1128
  14.3850      970
  14.4000      980
  14.4150      922
  14.4300      921
  14.4450      883
  14.4600      947
  14.4750      955
  14.4900      984
  14.5050     1001
  14.5200      923
  14.5350      884
  14.5500      809
  14.5650      720
  14.5800      667
  14.5950      669
  14.6100      671
  14.6250      690
  14.6400      642
  14.6550      631
  14.6700      663
  14.6850      688
  14.7000      661
  14.7150      678
  14.7300      640
  14.7450      667
  14.7600      695
  14.7750      667
  14.7900      683
  14.8050      737
  14.8200      693
  14.8350      731
  14.8500      737
  14.8650      839
  14.8800      884
  14.8950      944
  14.9100      992
  14.9250     1151
  14.9400     1211
  14.9550     1438
  14.9700     1631
  14.9850     1924
  15.0000     2158
  15.0150     2276
  15.0300     2569
  15.0450     2976
  15.0600     3463
  15.0750     3863
  15.0900     3831
  15.1050     3432
  15.1200     2891
  15.1350     2222
  15.1500     1813
  15.1650     1505
  15.1800     1288
  15.1950     1146
  15.2100     1078
  15.2250     1042
  15.2400     1006
  15.2550      958
  15.2700      902
  15.2850      857
  15.3000      900
  15.3150      958
  15.3300     1009
  15.3450     1137
  15.3600     1280
  15.3750     1440
  15.3900     1580
  15.4050     1804
  15.4200     1935
  15.4350     2015
  15.4500     2110
  15.4650     2077
  15.4800     2147
  15.4950     2366
  15.5100     2590
  15.5250     2667
  15.5400     2486
  15.5550     2224
  15.5700     1791
  15.5850     1461
  15.6000     1300
  15.6150     1124
  15.6300      996
  15.6450      961
  15.6600      955
  15.6750      979
  15.6900      984
  15.7050     1042
  15.7200     1071
  15.7350     1201
  15.7500     1300
  15.7650     1426
  15.7800     1622
  15.7950     1716
  15.8100     1683
  15.8250     1644
  15.8400     1626
  15.8550     1640
  15.8700     1463
  15.8850     1249
  15.9000     1075
  15.9150     1013
  15.9300      928
  15.9450      893
  15.9600      908
  15.9750      890
  15.9900      900
  16.0050      856
  16.0200      807
  16.0350      778
  16.0500      740
  16.0650      724
  16.0800      722
  16.0950      690
  16.1100      711
  16.1250      692
  16.1400      759
  16.1550      789
  16.1700      869
  16.1850      916
  16.2000     1004
  16.2150     1131
  16.2300     1257
  16.2450     1510
  16.2600     1869
  16.2750     2022
  16.2900     2173
  16.3050     2191
  16.3200     2027
  16.3350     1955
  16.3500     1979
  16.3650     2168
  16.3800     2465
  16.3950     2808
  16.4100     3118
  16.4250     3613
  16.4400     4290
  16.4550     5128
  16.4700     5939
  16.4850     5958
  16.5000     5619
  16.5150     4848
  16.5300     3990
  16.5450     3507
  16.5600     3247
  16.5750     3309
  16.5900     3588
  16.6050     3870
  16.6200     4102
  16.6350     3819
  16.6500     3339
  16.6650     2622
  16.6800     2113
  16.6950     1851
  16.7100     1702
  16.7250     1687
  16.7400     1827
  16.7550     2045
  16.7700     2266
  16.7850     2523
  16.8000     2598
  16.8150     2545
  16.8300     2165
  16.8450     1776
  16.8600     1464
  16.8750     1321
  16.8900     1237
  16.9050     1238
  16.9200     1334
  16.9350     1403
  16.9500     1397
  16.9650     1329
  16.9800     1329
  16.9950     1313
  17.0100     1342
  17.0250     1433
  17.0400     1635
  17.0550     1834
  17.0700     2097
  17.0850     2433
  17.1000     2778
  17.1150     2999
  17.1300     3072
  17.1450     2890
  17.1600     2654
  17.1750     2308
  17.1900     2069
  17.2050     1872
  17.2200     1604
  17.2350     1294
  17.2500     1146
  17.2650      959
  17.2800      811
  17.2950      816
  17.3100      747
  17.3250      717
  17.3400      777
  17.3550      770
  17.3700      758
  17.3850      764
  17.4000      771
  17.4150      756
  17.4300      745
  17.4450      747
  17.4600      679
  17.4750      688
  17.4900      658
  17.5050      659
  17.5200      615
  17.5350      642
  17.5500      615
  17.5650      664
  17.5800      666
  17.5950      655
  17.6100      672
  17.6250      688
  17.6400      727
  17.6550      734
  17.6700      708
  17.6850      736
  17.7000      812
  17.7150      873
  17.7300     1019
  17.7450     1136
  17.7600     1251
  17.7750     1457
  17.7900     1638
  17.8050     1725
  17.8200     1674
  17.8350     1650
  17.8500     1430
  17.8650     1195
  17.8800      942
  17.8950      852
  17.9100      753
  17.9250      773
  17.9400      796
  17.9550      793
  17.9700      728
  17.9850      684
  18.0000      767
  18.0150      797
  18.0300      802
  18.0450      871
  18.0600      920
  18.0750      944
  18.0900     1031
  18.1050     1143
  18.1200     1211
  18.1350     1352
  18.1500     1506
  18.1650     1652
  18.1800     1922
  18.1950     2316
  18.2100     2667
  18.2250     3164
  18.2400     3477
  18.2550     3845
  18.2700     4090
  18.2850     4053
  18.3000     4005
  18.3150     4115
  18.3300     4229
  18.3450     4592
  18.3600     5105
  18.3750     5572
  18.3900     5788
  18.4050     5562
  18.4200     4863
  18.4350     3998
  18.4500     3079
  18.4650     2434
  18.4800     1997
  18.4950     1753
  18.5100     1439
  18.5250     1267
  18.5400     1220
  18.5550     1164
  18.5700     1083
  18.5850     1034
  18.6000     1005
  18.6150     1072
  18.6300     1001
  18.6450     1042
  18.6600     1062
  18.6750     1074
  18.6900     1150
  18.7050     1261
  18.7200     1393
  18.7350     1597
  18.7500     1988
  18.7650     2365
  18.7800     2762
  18.7950     3221
  18.8100     3381
  18.8250     3174
  18.8400     2803
  18.8550     2323
  18.8700     2055
  18.8850     1880
  18.9000     1850
  18.9150     2199
  18.9300     2519
  18.9450     2989
  18.9600     3702
  18.9750     4338
  18.9900     4747
  19.0050     4576
  19.0200     4089
  19.0350     3400
  19.0500     2492
  19.0650     1826
  19.0800     1334
  19.0950     1148
  19.1100     1131
  19.1250     1105
  19.1400     1054
  19.1550     1071
  19.1700     1114
  19.1850     1174
  19.2000     1229
  19.2150     1282
  19.2300     1494
  19.2450     1709
  19.2600     2030
  19.2750     2340
  19.2900     2399
  19.3050     2403
  19.3200     2303
  19.3350     1995
  19.3500     1642
  19.3650     1373
  19.3800     1154
  19.3950     1039
  19.4100     1048
  19.4250     1007
  19.4400     1021
  19.4550     1082
  19.4700      988
  19.4850      997
  19.5000      913
  19.5150      864
  19.5300      826
  19.5450      843
  19.5600      873
  19.5750      871
  19.5900      812
  19.6050      805
  19.6200      831
  19.6350      818
  19.6500      869
  19.6650      885
  19.6800      874
  19.6950      947
  19.7100      987
  19.7250     1058
  19.7400     1209
  19.7550     1277
  19.7700     1455
  19.7850     1695
  19.8000     1905
  19.8150     2203
  19.8300     2689
  19.8450     3157
  19.8600     3758
  19.8750     4343
  19.8900     5087
  19.9050     5703
  19.9200     5877
  19.9350     5759
  19.9500     5126
  19.9650     4379
  19.9800     3672
  19.9950     3339
  20.0100     3181
  20.0250     2907
  20.0400     2740
  20.0550     2443
  20.0700     2113
  20.0850     1785
  20.1000     1571
  20.1150     1392
  20.1300     1272
  20.1450     1187
  20.1600     1124
  20.1750     1106
  20.1900     1040
  20.2050     1027
  20.2200     1081
  20.2350     1110
  20.2500     1184
  20.2650     1243
  20.2800     1386
  20.2950     1566
  20.3100     1715
  20.3250     1870
  20.3400     1941
  20.3550     1906
  20.3700     1798
  20.3850     1664
  20.4000     1507
  20.4150     1353
  20.4300     1364
  20.4450     1276
  20.4600     1371
  20.4750     1414
  20.4900     1627
  20.5050     1896
  20.5200     2118
  20.5350     2466
  20.5500     2775
  20.5650     2808
  20.5800     2776
  20.5950     2460
  20.6100     2127
  20.6250     1704
  20.6400     1398
  20.6550     1181
  20.6700     1157
  20.6850     1077
  20.7000     1113
  20.7150     1176
  20.7300     1250
  20.7450     1399
  20.7600     1493
  20.7750     1619
  20.7900     1810
  20.8050     1996
  20.8200     2279
  20.8350     2652
  20.8500     2780
  20.8650     2855
  20.8800     2785
  20.8950     2655
  20.9100     2292
  20.9250     1966
  20.9400     1698
  20.9550     1489
  20.9700     1424
  20.9850     1306
  21.0000     1270
  21.0150     1291
  21.0300     1268
  21.0450     1228
  21.0600     1250
  21.0750     1332
  21.0900     1313
  21.1050     1421
  21.1200     1596
  21.1350     1761
  21.1500     2068
  21.1650     2338
  21.1800     2543
  21.1950     2853
  21.2100     3128
  21.2250     3248
  21.2400     2941
  21.2550     2720
  21.2700     2340
  21.2850     2080
  21.3000     2083
  21.3150     2066
  21.3300     2017
  21.3450     2069
  21.3600     2056
  21.3750     2100
  21.3900     2090
  21.4050     2191
  21.4200     2430
  21.4350     2710
  21.4500     2902
  21.4650     3252
  21.4800     3527
  21.4950     3624
  21.5100     3725
  21.5250     3616
  21.5400     3332
  21.5550     3039
  21.5700     2549
  21.5850     2123
  21.6000     1727
  21.6150     1490
  21.6300     1289
  21.6450     1127
  21.6600     1078
  21.6750     1070
  21.6900     1002
  21.7050     1026
  21.7200     1019
  21.7350     1065
  21.7500     1124
  21.7650     1192
  21.7800     1401
  21.7950     1531
  21.8100     1632
  21.8250     1851
  21.8400     1931
  21.8550     1907
  21.8700     1849
  21.8850     1695
  21.9000     1488
  21.9150     1303
  21.9300     1125
  21.9450     1008
  21.9600     1003
  21.9750      982
  21.9900     1008
  22.0050     1033
  22.0200     1102
  22.0350     1052
  22.0500     1116
  22.0650     1100
  22.0800     1064
  22.0950     1068
  22.1100     1018
  22.1250      927
  22.1400      915
  22.1550      960
  22.1700      936
  22.1850      893
  22.2000      956
  22.2150      965
  22.2300      929
  22.2450      962
  22.2600      967
  22.2750      977
  22.2900      900
  22.3050      932
  22.3200     1005
  22.3350     1047
  22.3500     1115
  22.3650     1228
  22.3800     1344
  22.3950     1453
  22.4100     1457
  22.4250     1383
  22.4400     1313
  22.4550     1114
  22.4700      982
  22.4850      906
  22.5000      828
  22.5150      762
  22.5300      706
  22.5450      677
  22.5600      650
  22.5750      678
  22.5900      665
  22.6050      722
  22.6200      703
  22.6350      671
  22.6500      692
  22.6650      712
  22.6800      698
  22.6950      677
  22.7100      667
  22.7250      667
  22.7400      677
  22.7550      697
  22.7700      717
  22.7850      703
  22.8000      758
  22.8150      824
  22.8300      937
  22.8450      994
  22.8600     1122
  22.8750     1328
  22.8900     1665
  22.9050     1851
  22.9200     2142
  22.9350     2279
  22.9500     2314
  22.9650     2170
  22.9800     1875
  22.9950     1536
  23.0100     1230
  23.0250     1010
  23.0400      902
  23.0550      880
  23.0700      826
  23.0850      788
  23.1000      848
  23.1150      825
  23.1300      870
  23.1450      900
  23.1600      894
  23.1750      890
  23.1900      882
  23.2050      945
  23.2200     1116
  23.2350     1248
  23.2500     1342
  23.2650     1553
  23.2800     1698
  23.2950     1702
  23.3100     1653
  23.3250     1542
  23.3400     1402
  23.3550     1294
  23.3700     1136
  23.3850     1102
  23.4000     1043
  23.4150      934
  23.4300      869
  23.4450      843
  23.4600      778
  23.4750      762
  23.4900      769
  23.5050      741
  23.5200      766
  23.5350      794
  23.5500      861
  23.5650      870
  23.5800      886
  23.5950      964
  23.6100     1061
  23.6250     1168
  23.6400     1343
  23.6550     1497
  23.6700     1597
  23.6850     1857
  23.7000     2007
  23.7150     2177
  23.7300     2075
  23.7450     1962
  23.7600     1897
  23.7750     1724
  23.7900     1501
  23.8050     1366
  23.8200     1258
  23.8350     1070
  23.8500     1038
  23.8650      971
  23.8800      964
  23.8950     1089
  23.9100     1133
  23.9250     1166
  23.9400     1346
  23.9550     1475
  23.9700     1699
  23.9850     1873
  24.0000     2038
  24.0150     2058
  24.0300     2191
  24.0450     2186
  24.0600     2302
  24.0750     2346
  24.0900     2315
  24.1050     2346
  24.1200     2222
  24.1350     2056
  24.1500     1839
  24.1650     1656
  24.1800     1484
  24.1950     1313
  24.2100     1242
  24.2250     1170
  24.2400     1011
  24.2550      977
  24.2700      947
  24.2850      911
  24.3000      938
  24.3150      917
  24.3300      893
  24.3450      909
  24.3600      964
  24.3750      960
  24.3900      970
  24.4050     1035
  24.4200     1104
  24.4350     1164
  24.4500     1276
  24.4650     1461
  24.4800     1529
  24.4950     1761
  24.5100     1910
  24.5250     2105
  24.5400     2513
  24.5550     2924
  24.5700     3403
  24.5850     3654
  24.6000     3777
  24.6150     3715
  24.6300     3456
  24.6450     2917
  24.6600     2393
  24.6750     1983
  24.6900     1688
  24.7050     1545
  24.7200     1467
  24.7350     1421
  24.7500     1404
  24.7650     1386
  24.7800     1501
  24.7950     1625
  24.8100     1790
  24.8250     1861
  24.8400     1955
  24.8550     2034
  24.8700     1818
  24.8850     1679
  24.9000     1590
  24.9150     1521
  24.9300     1467
  24.9450     1475
  24.9600     1560
  24.9750     1631
  24.9900     1663
  25.0050     1673
  25.0200     1642
  25.0350     1455
  25.0500     1390
  25.0650     1267
  25.0800     1150
  25.0950     1088
  25.1100     1068
  25.1250     1039
  25.1400     1136
  25.1550     1293
  25.1700     1414
  25.1850     1526
  25.2000     1750
  25.2150     1922
  25.2300     1975
  25.2450     2011
  25.2600     1908
  25.2750     1734
  25.2900     1645
  25.3050     1461
  25.3200     1379
  25.3350     1251
  25.3500     1236
  25.3650     1160
  25.3800     1259
  25.3950     1244
  25.4100     1334
  25.4250     1464
  25.4400     1600
  25.4550     1694
  25.4700     1863
  25.4850     1991
  25.5000     2084
  25.5150     2091
  25.5300     1997
  25.5450     1951
  25.5600     1871
  25.5750     1724
  25.5900     1658
  25.6050     1481
  25.6200     1416
  25.6350     1375
  25.6500     1275
  25.6650     1238
  25.6800     1261
  25.6950     1281
  25.7100     1283
  25.7250     1277
  25.7400     1283
  25.7550     1330
  25.7700     1383
  25.7850     1507
  25.8000     1681
  25.8150     1798
  25.8300     2023
  25.8450     2030
  25.8600     2064
  25.8750     1921
  25.8900     1693
  25.9050     1533
  25.9200     1312
  25.9350     1200
  25.9500     1124
  25.9650     1098
  25.9800     1016
  25.9950      946
  26.0100      958
  26.0250      896
  26.0400      858
  26.0550      911
  26.0700      856
  26.0850      839
  26.1000      875
  26.1150      904
  26.1300      909
  26.1450      942
  26.1600      917
  26.1750      927
  26.1900     1016
  26.2050     1060
  26.2200     1121
  26.2350     1068
  26.2500     1087
  26.2650     1040
  26.2800     1040
  26.2950      950
  26.3100      987
  26.3250      984
  26.3400      966
  26.3550      993
  26.3700      969
  26.3850      964
  26.4000      991
  26.4150      920
  26.4300      914
  26.4450      917
  26.4600      967
  26.4750      959
  26.4900     1007
  26.5050     1049
  26.5200     1125
  26.5350     1167
  26.5500     1293
  26.5650     1413
  26.5800     1638
  26.5950     1818
  26.6100     2081
  26.6250     2424
  26.6400     2797
  26.6550     3012
  26.6700     3097
  26.6850     3083
  26.7000     2883
  26.7150     2537
  26.7300     2129
  26.7450     1766
  26.7600     1542
  26.7750     1381
  26.7900     1392
  26.8050     1303
  26.8200     1329
  26.8350     1291
  26.8500     1254
  26.8650     1223
  26.8800     1201
  26.8950     1234
  26.9100     1268
  26.9250     1360
  26.9400     1453
  26.9550     1580
  26.9700     1760
  26.9850     1929
  27.0000     2017
  27.0150     2158
  27.0300     2116
  27.0450     1986
  27.0600     1951
  27.0750     1716
  27.0900     1607
  27.1050     1420
  27.1200     1287
  27.1350     1305
  27.1500     1204
  27.1650     1149
  27.1800     1212
  27.1950     1182
  27.2100     1227
  27.2250     1249
  27.2400     1376
  27.2550     1332
  27.2700     1431
  27.2850     1465
  27.3000     1427
  27.3150     1533
  27.3300     1607
  27.3450     1761
  27.3600     1992
  27.3750     2264
  27.3900     2685
  27.4050     2959
  27.4200     3131
  27.4350     3235
  27.4500     3160
  27.4650     2837
  27.4800     2655
  27.4950     2246
  27.5100     2008
  27.5250     1800
  27.5400     1672
  27.5550     1791
  27.5700     1808
  27.5850     1824
  27.6000     1850
  27.6150     1906
  27.6300     1837
  27.6450     1884
  27.6600     1843
  27.6750     1750
  27.6900     1736
  27.7050     1770
  27.7200     1774
  27.7350     1680
  27.7500     1631
  27.7650     1668
  27.7800     1633
  27.7950     1498
  27.8100     1492
  27.8250     1396
  27.8400     1299
  27.8550     1156
  27.8700     1098
  27.8850      998
  27.9000      919
  27.9150      867
  27.9300      863
  27.9450      849
  27.9600      808
  27.9750      820
  27.9900      802
  28.0050      824
  28.0200      813
  28.0350      898
  28.0500      943
  28.0650      954
  28.0800      921
  28.0950      993
  28.1100      943
  28.1250      952
  28.1400      954
  28.1550      925
  28.1700      889
  28.1850      808
  28.2000      783
  28.2150      774
  28.2300      790
  28.2450      802
  28.2600      864
  28.2750      868
  28.2900      847
  28.3050      914
  28.3200      967
  28.3350      925
  28.3500      911
  28.3650      955
  28.3800      992
  28.3950      940
  28.4100      987
  28.4250      986
  28.4400     1066
  28.4550     1097
  28.4700     1134
  28.4850     1274
  28.5000     1327
  28.5150     1339
  28.5300     1260
  28.5450     1291
  28.5600     1269
  28.5750     1235
  28.5900     1184
  28.6050     1179
  28.6200     1126
  28.6350     1046
  28.6500     1042
  28.6650     1033
  28.6800      993
  28.6950      996
  28.7100      998
  28.7250     1037
  28.7400     1037
  28.7550     1015
  28.7700     1025
  28.7850     1040
  28.8000     1101
  28.8150     1145
  28.8300     1157
  28.8450     1176
  28.8600     1224
  28.8750     1240
  28.8900     1222
  28.9050     1225
  28.9200     1232
  28.9350     1235
  28.9500     1230
  28.9650     1196
  28.9800     1145
  28.9950     1082
  29.0100     1073
  29.0250     1024
  29.0400      964
  29.0550      974
  29.0700      899
  29.0850      840
  29.1000      810
  29.1150      780
  29.1300      707
  29.1450      722
  29.1600      661
  29.1750      690
  29.1900      713
  29.2050      690
  29.2200      646
  29.2350      685
  29.2500      696
  29.2650      691
  29.2800      704
  29.2950      705
  29.3100      752
  29.3250      718
  29.3400      703
  29.3550      732
  29.3700      723
  29.3850      730
  29.4000      680
  29.4150      721
  29.4300      758
  29.4450      739
  29.4600      742
  29.4750      748
  29.4900      780
  29.5050      802
  29.5200      811
  29.5350      812
  29.5500      788
  29.5650      743
  29.5800      748
  29.5950      715
  29.6100      722
  29.6250      664
  29.6400      670
  29.6550      680
  29.6700      706
  29.6850      638
  29.7000      684
  29.7150      696
  29.7300      669
  29.7450      609
  29.7600      617
  29.7750      663
  29.7900      645
  29.8050      631
  29.8200      660
  29.8350      633
  29.8500      638
  29.8650      670
  29.8800      642
  29.8950      699
  29.9100      745
  29.9250      665
  29.9400      713
  29.9550      738
  29.9700      737
  29.9850      739
  30.0000      741
  30.0150      758
  30.0300      740
  30.0450      779
  30.0600      769
  30.0750      817
  30.0900      804
  30.1050      793
  30.1200      784
  30.1350      835
  30.1500      847
  30.1650      869
  30.1800      893
  30.1950      893
  30.2100      906
  30.2250      843
  30.2400      908
  30.2550      953
  30.2700      979
  30.2850     1066
  30.3000     1102
  30.3150     1167
  30.3300     1235
  30.3450     1333
  30.3600     1370
  30.3750     1412
  30.3900     1372
  30.4050     1321
  30.4200     1312
  30.4350     1250
  30.4500     1190
  30.4650     1104
  30.4800     1091
  30.4950     1038
  30.5100      869
  30.5250      849
  30.5400      890
  30.5550      812
  30.5700      795
  30.5850      759
  30.6000      756
  30.6150      814
  30.6300      798
  30.6450      873
  30.6600      817
  30.6750      776
  30.6900      791
  30.7050      771
  30.7200      743
  30.7350      740
  30.7500      704
  30.7650      724
  30.7800      696
  30.7950      698
  30.8100      706
  30.8250      664
  30.8400      673
  30.8550      747
  30.8700      780
  30.8850      737
  30.9000      716
  30.9150      741
  30.9300      795
  30.9450      754
  30.9600      777
  30.9750      829
  30.9900      843
  31.0050      889
  31.0200      960
  31.0350     1025
  31.0500     1076
  31.0650     1044
  31.0800     1099
  31.0950     1118
  31.1100     1127
  31.1250     1119
  31.1400     1145
  31.1550     1120
  31.1700     1065
  31.1850     1066
  31.2000     1037
  31.2150     1002
  31.2300      970
  31.2450      957
  31.2600      920
  31.2750      888
  31.2900      868
  31.3050      877
  31.3200      912
  31.3350      945
  31.3500      903
  31.3650      863
  31.3800      898
  31.3950      926
  31.4100      957
  31.4250      936
  31.4400     1005
  31.4550     1036
  31.4700     1022
  31.4850     1073
  31.5000     1104
  31.5150     1090
  31.5300     1054
  31.5450      994
  31.5600      918
  31.5750      890
  31.5900      858
  31.6050      881
  31.6200      885
  31.6350      910
  31.6500      902
  31.6650      923
  31.6800      911
  31.6950      950
  31.7100      977
  31.7250      950
  31.7400      905
  31.7550      922
  31.7700      945
  31.7850      890
  31.8000      872
  31.8150      862
  31.8300      890
  31.8450      894
  31.8600      909
  31.8750      935
  31.8900      936
  31.9050      955
  31.9200      939
  31.9350      930
  31.9500      961
  31.9650      967
  31.9800     1024
  31.9950     1005
  32.0100     1000
  32.0250     1051
  32.0400      986
  32.0550      985
  32.0700      974
  32.0850      939
  32.1000      895
  32.1150      850
  32.1300      844
  32.1450      822
  32.1600      800
  32.1750      760
  32.1900      792
  32.2050      775
  32.2200      770
  32.2350      778
  32.2500      791
  32.2650      767
  32.2800      805
  32.2950      850
  32.3100      836
  32.3250      873
  32.3400      829
  32.3550      864
  32.3700      856
  32.3850      881
  32.4000      865
  32.4150      861
  32.4300      827
  32.4450      782
  32.4600      790
  32.4750      733
  32.4900      735
  32.5050      720
  32.5200      717
  32.5350      689
  32.5500      678
  32.5650      633
  32.5800      677
  32.5950      705
  32.6100      672
  32.6250      723
  32.6400      689
  32.6550      729
  32.6700      703
  32.6850      698
  32.7000      674
  32.7150      676
  32.7300      691
  32.7450      707
  32.7600      725
  32.7750      700
  32.7900      728
  32.8050      713
  32.8200      723
  32.8350      687
  32.8500      687
  32.8650      686
  32.8800      666
  32.8950      614
  32.9100      628
  32.9250      669
  32.9400      657
  32.9550      687
  32.9700      675
  32.9850      636
  33.0000      683
  33.0150      659
  33.0300      573
  33.0450      625
  33.0600      667
  33.0750      648
  33.0900      651
  33.1050      709
  33.1200      810
  33.1350      860
  33.1500      946
  33.1650     1015
  33.1800     1161
  33.1950     1242
  33.2100     1306
  33.2250     1304
  33.2400     1320
  33.2550     1218
  33.2700     1149
  33.2850     1058
  33.3000     1022
  33.3150      955
  33.3300      933
  33.3450      876
  33.3600      834
  33.3750      846
  33.3900      888
  33.4050      861
  33.4200      856
  33.4350      812
  33.4500      799
  33.4650      800
  33.4800      831
  33.4950      820
  33.5100      820
  33.5250      865
  33.5400      860
  33.5550      865
  33.5700      868
  33.5850      886
  33.6000      884
  33.6150      849
  33.6300      864
  33.6450      855
  33.6600      862
  33.6750      857
  33.6900      848
  33.7050      804
  33.7200      781
  33.7350      764
  33.7500      760
  33.7650      721
  33.7800      670
  33.7950      653
  33.8100      642
  33.8250      612
  33.8400      569
  33.8550      634
  33.8700      622
  33.8850      576
  33.9000      656
  33.9150      622
  33.9300      634
  33.9450      603
  33.9600      626
  33.9750      644
  33.9900      639
  34.0050      643
  34.0200      670
  34.0350      703
  34.0500      683
  34.0650      708
  34.0800      696
  34.0950      746
  34.1100      727
  34.1250      708
  34.1400      776
  34.1550      756
  34.1700      775
  34.1850      816
  34.2000      841
  34.2150      836
  34.2300      820
  34.2450      849
  34.2600      877
  34.2750      813
  34.2900      775
  34.3050      780
  34.3200      758
  34.3350      770
  34.3500      797
  34.3650      809
  34.3800      906
  34.3950      887
  34.4100      941
  34.4250      964
  34.4400      953
  34.4550      910
  34.4700      923
  34.4850      904
  34.5000      909
  34.5150      905
  34.5300      855
  34.5450      925
  34.5600      901
  34.5750      915
  34.5900      957
  34.6050      899
  34.6200      959
  34.6350     1002
  34.6500      942
  34.6650      959
  34.6800      947
  34.6950      863
  34.7100      820
  34.7250      728
  34.7400      754
  34.7550      724
  34.7700      714
  34.7850      694
  34.8000      635
  34.8150      637
  34.8300      620
  34.8450      671
  34.8600      664
  34.8750      676
  34.8900      658
  34.9050      643
  34.9200      666
  34.9350      655
  34.9500      632
  34.9650      644
  34.9800      626
  34.9950      578
  35.0100      601
  35.0250      593
  35.0400      605
  35.0550      628
  35.0700      622
  35.0850      625
  35.1000      631
  35.1150      652
  35.1300      639
  35.1450      619
  35.1600      652
  35.1750      679
  35.1900      713
  35.2050      734
  35.2200      755
  35.2350      835
  35.2500      839
  35.2650      840
  35.2800      881
  35.2950      967
  35.3100      991
  35.3250      984
  35.3400     1065
  35.3550     1051
  35.3700     1016
  35.3850     1006
  35.4000      976
  35.4150      913
  35.4300      922
  35.4450      831
  35.4600      786
  35.4750      793
  35.4900      854
  35.5050      826
  35.5200      863
  35.5350      872
  35.5500      906
  35.5650      977
  35.5800      989
  35.5950      998
  35.6100     1002
  35.6250     1002
  35.6400     1015
  35.6550      986
  35.6700      860
  35.6850      894
  35.7000      878
  35.7150      846
  35.7300      793
  35.7450      828
  35.7600      789
  35.7750      815
  35.7900      806
  35.8050      817
  35.8200      801
  35.8350      829
  35.8500      788
  35.8650      832
  35.8800      838
  35.8950      853
  35.9100      829
  35.9250      917
  35.9400      875
  35.9550      911
  35.9700      965
  35.9850      917
  36.0000      967
  36.0150      951
  36.0300      898
  36.0450      972
  36.0600      974
  36.0750      970
  36.0900      951
  36.1050     1000
  36.1200      939
  36.1350      955
  36.1500      963
  36.1650      930
  36.1800      899
  36.1950      970
  36.2100      957
  36.2250      852
  36.2400      844
  36.2550      886
  36.2700     1040
  36.2850     1019
  36.3000     1069
  36.3150     1132
  36.3300     1210
  36.3450     1300
  36.3600     1339
  36.3750     1386
  36.3900     1530
  36.4050     1566
  36.4200     1632
  36.4350     1569
  36.4500     1588
  36.4650     1502
  36.4800     1429
  36.4950     1379
  36.5100     1298
  36.5250     1251
  36.5400     1166
  36.5550     1130
  36.5700     1098
  36.5850     1121
  36.6000     1055
  36.6150     1021
  36.6300     1005
  36.6450      969
  36.6600      957
  36.6750      971
  36.6900      873
  36.7050      844
  36.7200      839
  36.7350      797
  36.7500      790
  36.7650      787
  36.7800      802
  36.7950      800
  36.8100      743
  36.8250      768
  36.8400      722
  36.8550      765
  36.8700      769
  36.8850      806
  36.9000      794
  36.9150      805
  36.9300      828
  36.9450      835
  36.9600      826
  36.9750      838
  36.9900      850
  37.0050      847
  37.0200      870
  37.0350      894
  37.0500      858
  37.0650      806
  37.0800      788
  37.0950      836
  37.1100      847
  37.1250      808
  37.1400      804
  37.1550      785
  37.1700      800
  37.1850      828
  37.2000      851
  37.2150      864
  37.2300      839
  37.2450      868
  37.2600      906
  37.2750     1021
  37.2900     1082
  37.3050     1101
  37.3200     1205
  37.3350     1176
  37.3500     1123
  37.3650     1094
  37.3800     1043
  37.3950     1014
  37.4100      961
  37.4250      911
  37.4400      857
  37.4550      872
  37.4700      859
  37.4850      856
  37.5000      877
  37.5150      899
  37.5300      896
  37.5450      975
  37.5600      969
  37.5750      945
  37.5900      937
  37.6050      909
  37.6200      896
  37.6350      881
  37.6500      853
  37.6650      839
  37.6800      824
  37.6950      823
  37.7100      838
  37.7250      841
  37.7400      872
  37.7550      900
  37.7700      861
  37.7850      870
  37.8000      854
  37.8150      883
  37.8300      869
  37.8450      891
  37.8600      933
  37.8750      937
  37.8900      975
  37.9050      995
  37.9200     1051
  37.9350     1059
  37.9500     1058
  37.9650      998
  37.9800     1008
  37.9950      982
  38.0100      982
  38.0250      931
  38.0400      922
  38.0550      982
  38.0700      911
  38.0850      943
  38.1000      923
  38.1150      959
  38.1300      996
  38.1450     1023
  38.1600     1000
  38.1750     1005
  38.1900     1026
  38.2050     1034
  38.2200     1005
  38.2350     1015
  38.2500      983
  38.2650      962
  38.2800      918
  38.2950      908
  38.3100      880
  38.3250      907
  38.3400      911
  38.3550      920
  38.3700      935
  38.3850      837
  38.4000      865
  38.4150      888
  38.4300      927
  38.4450      874
  38.4600      891
  38.4750      873
  38.4900      836
  38.5050      867
  38.5200      888
  38.5350      935
  38.5500      886
  38.5650      935
  38.5800      886
  38.5950      859
  38.6100      827
  38.6250      819
  38.6400      787
  38.6550      787
  38.6700      790
  38.6850      796
  38.7000      736
  38.7150      797
  38.7300      772
  38.7450      803
  38.7600      811
  38.7750      779
  38.7900      847
  38.8050      850
  38.8200      851
  38.8350      891
  38.8500      885
  38.8650      884
  38.8800      976
  38.8950      918
  38.9100      942
  38.9250      932
  38.9400      888
  38.9550      862
  38.9700      839
  38.9850      816
  39.0000      778
  39.0150      787
  39.0300      783
  39.0450      761
  39.0600      791
  39.0750      755
  39.0900      764
  39.1050      746
  39.1200      793
  39.1350      777
  39.1500      770
  39.1650      774
  39.1800      745
  39.1950      768
  39.2100      764
  39.2250      727
  39.2400      767
  39.2550      745
  39.2700      726
  39.2850      722
  39.3000      734
  39.3150      737
  39.3300      785
  39.3450      774
  39.3600      760
  39.3750      813
  39.3900      795
  39.4050      801
  39.4200      760
  39.4350      811
  39.4500      805
  39.4650      822
  39.4800      811
  39.4950      764
  39.5100      781
  39.5250      797
  39.5400      815
  39.5550      782
  39.5700      766
  39.5850      806
  39.6000      813
  39.6150      846
  39.6300      783
  39.6450      793
  39.6600      835
  39.6750      835
  39.6900      839
  39.7050      856
  39.7200      862
  39.7350      874
  39.7500      897
  39.7650      850
  39.7800      809
  39.7950      846
  39.8100      843
  39.8250      784
  39.8400      812
  39.8550      784
  39.8700      837
  39.8850      833
  39.9000      829
  39.9150      898
  39.9300      919
  39.9450      869
  39.9600      865
  39.9750      883
  39.9900      821
  40.0050      872
  40.0200      856
  40.0350      834
  40.0500      869
  40.0650      866
  40.0800      863
  40.0950      868
  40.1100      849
  40.1250      860
  40.1400      888
  40.1550      881
  40.1700      847
  40.1850      832
  40.2000      830
  40.2150      812
  40.2300      833
  40.2450      799
  40.2600      795
  40.2750      761
  40.2900      787
  40.3050      795
  40.3200      740
  40.3350      811
  40.3500      816
  40.3650      802
  40.3800      815
  40.3950      834
  40.4100      830
  40.4250      836
  40.4400      844
  40.4550      848
  40.4700      876
  40.4850      840
  40.5000      846
  40.5150      809
  40.5300      830
  40.5450      852
  40.5600      813
  40.5750      890
  40.5900      792
  40.6050      870
  40.6200      889
  40.6350      919
  40.6500      934
  40.6650      916
  40.6800      948
  40.6950     1004
  40.7100      940
  40.7250      915
  40.7400      884
  40.7550      886
  40.7700      866
  40.7850      876
  40.8000      860
  40.8150      823
  40.8300      772
  40.8450      803
  40.8600      809
  40.8750      792
  40.8900      801
  40.9050      828
  40.9200      825
  40.9350      825
  40.9500      897
  40.9650      849
  40.9800      814
  40.9950      837
  41.0100      808
  41.0250      816
  41.0400      774
  41.0550      768
  41.0700      728
  41.0850      723
  41.1000      718
  41.1150      716
  41.1300      701
  41.1450      676
  41.1600      682
  41.1750      706
  41.1900      665
  41.2050      695
  41.2200      730
  41.2350      683
  41.2500      659
  41.2650      697
  41.2800      692
  41.2950      691
  41.3100      728
  41.3250      731
  41.3400      750
  41.3550      783
  41.3700      815
  41.3850      817
  41.4000      856
  41.4150      854
  41.4300      823
  41.4450      854
  41.4600      891
  41.4750      904
  41.4900      922
  41.5050      951
  41.5200      872
  41.5350      888
  41.5500      885
  41.5650      855
  41.5800      836
  41.5950      827
  41.6100      809
  41.6250      834
  41.6400      826
  41.6550      752
  41.6700      796
  41.6850      792
  41.7000      857
  41.7150      800
  41.7300      799
  41.7450      761
  41.7600      783
  41.7750      773
  41.7900      727
  41.8050      756
  41.8200      754
  41.8350      761
  41.8500      745
  41.8650      747
  41.8800      754
  41.8950      780
  41.9100      779
  41.9250      798
  41.9400      820
  41.9550      845
  41.9700      837
  41.9850      843
  42.0000      805
  42.0150      861
  42.0300      849
  42.0450      827
  42.0600      891
  42.0750      888
  42.0900      891
  42.1050      871
  42.1200      844
  42.1350      848
  42.1500      826
  42.1650      801
  42.1800      811
  42.1950      762
  42.2100      769
  42.2250      793
  42.2400      802
  42.2550      766
  42.2700      796
  42.2850      843
  42.3000      855
  42.3150      868
  42.3300      874
  42.3450      938
  42.3600      979
  42.3750      927
  42.3900      901
  42.4050      860
  42.4200      893
  42.4350      828
  42.4500      776
  42.4650      790
  42.4800      815
  42.4950      742
  42.5100      756
  42.5250      703
  42.5400      736
  42.5550      721
  42.5700      731
  42.5850      712
  42.6000      704
  42.6150      721
  42.6300      744
  42.6450      742
  42.6600      727
  42.6750      746
  42.6900      804
  42.7050      751
  42.7200      753
  42.7350      814
  42.7500      831
  42.7650      810
  42.7800      862
  42.7950      837
  42.8100      819
  42.8250      860
  42.8400      884
  42.8550      937
  42.8700      878
  42.8850      888
  42.9000      922
  42.9150      923
  42.9300      884
  42.9450      872
  42.9600      822
  42.9750      789
  42.9900      794
  43.0050      760
  43.0200      741
  43.0350      750
  43.0500      723
  43.0650      688
  43.0800      718
  43.0950      744
  43.1100      764
  43.1250      773
  43.1400      747
  43.1550      733
  43.1700      758
  43.1850      780
  43.2000      800
  43.2150      807
  43.2300      834
  43.2450      805
  43.2600      838
  43.2750      794
  43.2900      845
  43.3050      841
  43.3200      898
  43.3350      826
  43.3500      850
  43.3650      858
  43.3800      834
  43.3950      816
  43.4100      744
  43.4250      758
  43.4400      784
  43.4550      723
  43.4700      749
  43.4850      748
  43.5000      739
  43.5150      756
  43.5300      738
  43.5450      790
  43.5600      734
  43.5750      755
  43.5900      715
  43.6050      745
  43.6200      753
  43.6350      819
  43.6500      783
  43.6650      773
  43.6800      779
  43.6950      744
  43.7100      721
  43.7250      691
  43.7400      725
  43.7550      758
  43.7700      776
  43.7850      777
  43.8000      761
  43.8150      760
  43.8300      769
  43.8450      734
  43.8600      714
  43.8750      716
  43.8900      723
  43.9050      727
  43.9200      717
  43.9350      735
  43.9500      679
  43.9650      657
  43.9800      699
  43.9950      664
  44.0100      679
  44.0250      745
  44.0400      700
  44.0550      681
  44.0700      647
  44.0850      681
  44.1000      697
  44.1150      629
  44.1300      673
  44.1450      674
  44.1600      651
  44.1750      632
  44.1900      618
  44.2050      639
  44.2200      634
  44.2350      654
  44.2500      640
  44.2650      633
  44.2800      633
  44.2950      669
  44.3100      651
  44.3250      707
  44.3400      692
  44.3550      704
  44.3700      691
  44.3850      709
  44.4000      727
  44.4150      719
  44.4300      735
  44.4450      742
  44.4600      762
  44.4750      733
  44.4900      729
  44.5050      731
  44.5200      742
  44.5350      795
  44.5500      792
  44.5650      768
  44.5800      737
  44.5950      741
  44.6100      754
  44.6250      735
  44.6400      733
  44.6550      711
  44.6700      698
  44.6850      650
  44.7000      634
  44.7150      619
  44.7300      614
  44.7450      642
  44.7600      608
  44.7750      551
  44.7900      583
  44.8050      593
  44.8200      596
  44.8350      587
  44.8500      575
  44.8650      592
  44.8800      591
  44.8950      591
  44.9100      583
  44.9250      612
  44.9400      597
  44.9550      611
  44.9700      629
  44.9850      582
  45.0000      594
  45.0150      588
  45.0300      643
  45.0450      650
  45.0600      700
  45.0750      674
  45.0900      660
  45.1050      647
  45.1200      661
  45.1350      624
  45.1500      610
  45.1650      629
  45.1800      662
  45.1950      664
  45.2100      617
  45.2250      682
  45.2400      656
  45.2550      660
  45.2700      661
  45.2850      691
  45.3000      630
  45.3150      645
  45.3300      656
  45.3450      671
  45.3600      684
  45.3750      664
  45.3900      660
  45.4050      666
  45.4200      656
  45.4350      667
  45.4500      693
  45.4650      695
  45.4800      684
  45.4950      726
  45.5100      698
  45.5250      700
  45.5400      691
  45.5550      687
  45.5700      671
  45.5850      691
  45.6000      665
  45.6150      656
  45.6300      627
  45.6450      592
  45.6600      581
  45.6750      599
  45.6900      582
  45.7050      579
  45.7200      577
  45.7350      570
  45.7500      569
  45.7650      581
  45.7800      577
  45.7950      551
  45.8100      545
  45.8250      593
  45.8400      579
  45.8550      585
  45.8700      576
  45.8850      545
  45.9000      519
  45.9150      555
  45.9300      571
  45.9450      563
  45.9600      576
  45.9750      616
  45.9900      610
  46.0050      636
  46.0200      580
  46.0350      591
  46.0500      599
  46.0650      604
  46.0800      626
  46.0950      619
  46.1100      590
  46.1250      640
  46.1400      620
  46.1550      593
  46.1700      600
  46.1850      607
  46.2000      649
  46.2150      636
  46.2300      638
  46.2450      630
  46.2600      601
  46.2750      611
  46.2900      621
  46.3050      611
  46.3200      576
  46.3350      554
  46.3500      574
  46.3650      622
  46.3800      587
  46.3950      624
  46.4100      602
  46.4250      571
  46.4400      575
  46.4550      568
  46.4700      573
  46.4850      547
  46.5000      563
  46.5150      546
  46.5300      532
  46.5450      546
  46.5600      582
  46.5750      563
  46.5900      551
  46.6050      531
  46.6200      564
  46.6350      547
  46.6500      510
  46.6650      552
  46.6800      531
  46.6950      558
  46.7100      537
  46.7250      545
  46.7400      549
  46.7550      518
  46.7700      563
  46.7850      573
  46.8000      603
  46.8150      570
  46.8300      564
  46.8450      569
  46.8600      578
  46.8750      561
  46.8900      565
  46.9050      556
  46.9200      581
  46.9350      595
  46.9500      578
  46.9650      589
  46.9800      576
  46.9950      580
  47.0100      553
  47.0250      570
  47.0400      600
  47.0550      592
  47.0700      575
  47.0850      572
  47.1000      569
  47.1150      611
  47.1300      604
  47.1450      593
  47.1600      580
  47.1750      623
  47.1900      610
  47.2050      621
  47.2200      635
  47.2350      661
  47.2500      657
  47.2650      638
  47.2800      663
  47.2950      617
  47.3100      620
  47.3250      656
  47.3400      624
  47.3550      675
  47.3700      642
  47.3850      671
  47.4000      644
  47.4150      691
  47.4300      675
  47.4450      624
  47.4600      635
  47.4750      621
  47.4900      603
  47.5050      605
  47.5200      622
  47.5350      622
  47.5500      613
  47.5650      590
  47.5800      574
  47.5950      610
  47.6100      655
  47.6250      624
  47.6400      602
  47.6550      620
  47.6700      621
  47.6850      622
  47.7000      603
  47.7150      651
  47.7300      621
  47.7450      627
  47.7600      605
  47.7750      577
  47.7900      616
  47.8050      608
  47.8200      570
  47.8350      532
  47.8500      564
  47.8650      561
  47.8800      558
  47.8950      590
  47.9100      585
  47.9250      588
  47.9400      631
  47.9550      632
  47.9700      617
  47.9850      640
  48.0000      624
  48.0150      594
  48.0300      654
  48.0450      608
  48.0600      541
  48.0750      579
  48.0900      575
  48.1050      604
  48.1200      589
  48.1350      552
  48.1500      556
  48.1650      586
  48.1800      559
  48.1950      553
  48.2100      610
  48.2250      575
  48.2400      584
  48.2550      564
  48.2700      520
  48.2850      586
  48.3000      549
  48.3150      531
  48.3300      563
  48.3450      532
  48.3600      516
  48.3750      549
  48.3900      545
  48.4050      571
  48.4200      577
  48.4350      549
  48.4500      575
  48.4650      578
  48.4800      525
  48.4950      561
  48.5100      563
  48.5250      515
  48.5400      498
  48.5550      512
  48.5700      550
  48.5850      541
  48.6000      545
  48.6150      538
  48.6300      556
  48.6450      510
  48.6600      519
  48.6750      533
  48.6900      532
  48.7050      549
  48.7200      537
  48.7350      543
  48.7500      531
  48.7650      528
  48.7800      523
  48.7950      528
  48.8100      530
  48.8250      523
  48.8400      535
  48.8550      521
  48.8700      534
  48.8850      522
  48.9000      520
  48.9150      535
  48.9300      555
  48.9450      564
  48.9600      559
  48.9750      560
  48.9900      526
  49.0050      537
  49.0200      546
  49.0350      535
  49.0500      588
  49.0650      573
  49.0800      593
  49.0950      582
  49.1100      595
  49.1250      593
  49.1400      624
  49.1550      601
  49.1700      613
  49.1850      627
  49.2000      622
  49.2150      643
  49.2300      628
  49.2450      644
  49.2600      658
  49.2750      603
  49.2900      609
  49.3050      635
  49.3200      610
  49.3350      625
  49.3500      608
  49.3650      600
  49.3800      609
  49.3950      583
  49.4100      567
  49.4250      575
  49.4400      527
  49.4550      568
  49.4700      590
  49.4850      585
  49.5000      575
  49.5150      632
  49.5300      601
  49.5450      566
  49.5600      566
  49.5750      557
  49.5900      552
  49.6050      578
  49.6200      583
  49.6350      538
  49.6500      561
  49.6650      563
  49.6800      516
  49.6950      550
  49.7100      572
  49.7250      566
  49.7400      592
  49.7550      584
  49.7700      561
  49.7850      523
  49.8000      516
  49.8150      529
  49.8300      542
  49.8450      517
  49.8600      548
  49.8750      530
  49.8900      561
  49.9050      541
  49.9200      519
  49.9350      543
  49.9500      541
  49.9650      575
  49.9800      602
  49.9950      597
  50.0100      569
  50.0250      554
  50.0400      601
  50.0550      624
  50.0700      578
  50.0850      581
  50.1000      604
  50.1150      642
  50.1300      639
  50.1450      627
  50.1600      608
  50.1750      657
  50.1900      619
  50.2050      656
  50.2200      654
  50.2350      658
  50.2500      646
  50.2650      585
  50.2800      608
  50.2950      605
  50.3100      581
  50.3250      569
  50.3400      613
  50.3550      573
  50.3700      565
  50.3850      572
  50.4000      599
  50.4150      580
  50.4300      565
  50.4450      552
  50.4600      536
  50.4750      603
  50.4900      575
  50.5050      562
  50.5200      543
  50.5350      520
  50.5500      529
  50.5650      508
  50.5800      502
  50.5950      501
  50.6100      461
  50.6250      490
  50.6400      538
  50.6550      527
  50.6700      522
  50.6850      487
  50.7000      488
  50.7150      527
  50.7300      495
  50.7450      481
  50.7600      512
  50.7750      524
  50.7900      498
  50.8050      514
  50.8200      496
  50.8350      481
  50.8500      496
  50.8650      484
  50.8800      493
  50.8950      542
  50.9100      549
  50.9250      510
  50.9400      519
  50.9550      509
  50.9700      542
  50.9850      527
  51.0000      538
  51.0150      517
  51.0300      531
  51.0450      530
  51.0600      553
  51.0750      574
  51.0900      567
  51.1050      578
  51.1200      540
  51.1350      575
  51.1500      575
  51.1650      554
  51.1800      558
  51.1950      556
  51.2100      571
  51.2250      555
  51.2400      553
  51.2550      569
  51.2700      562
  51.2850      563
  51.3000      539
  51.3150      545
  51.3300      567
  51.3450      564
  51.3600      529
  51.3750      558
  51.3900      597
  51.4050      560
  51.4200      617
  51.4350      588
  51.4500      561
  51.4650      575
  51.4800      556
  51.4950      529
  51.5100      579
  51.5250      598
  51.5400      560
  51.5550      550
  51.5700      541
  51.5850      594
  51.6000      587
  51.6150      534
  51.6300      551
  51.6450      550
  51.6600      572
  51.6750      577
  51.6900      575
  51.7050      588
  51.7200      589
  51.7350      638
  51.7500      681
  51.7650      637
  51.7800      669
  51.7950      670
  51.8100      681
  51.8250      677
  51.8400      676
  51.8550      675
  51.8700      655
  51.8850      680
  51.9000      662
  51.9150      663
  51.9300      682
  51.9450      630
  51.9600      618
  51.9750      651
  51.9900      609
  52.0050      601
  52.0200      589
  52.0350      571
  52.0500      605
  52.0650      574
  52.0800      561
  52.0950      601
  52.1100      611
  52.1250      578
  52.1400      575
  52.1550      586
  52.1700      585
  52.1850      550
  52.2000      563
  52.2150      557
  52.2300      614
  52.2450      546
  52.2600      588
  52.2750      549
  52.2900      574
  52.3050      586
  52.3200      584
  52.3350      604
  52.3500      582
  52.3650      577
  52.3800      578
  52.3950      607
  52.4100      617
  52.4250      563
  52.4400      587
  52.4550      602
  52.4700      638
  52.4850      577
  52.5000      598
  52.5150      604
  52.5300      638
  52.5450      608
  52.5600      563
  52.5750      577
  52.5900      592
  52.6050      575
  52.6200      585
  52.6350      629
  52.6500      558
  52.6650      526
  52.6800      533
  52.6950      536
  52.7100      557
  52.7250      570
  52.7400      529
  52.7550      523
  52.7700      555
  52.7850      559
  52.8000      552
  52.8150      555
  52.8300      565
  52.8450      544
  52.8600      529
  52.8750      547
  52.8900      560
  52.9050      567
  52.9200      560
  52.9350      570
  52.9500      569
  52.9650      540
  52.9800      512
  52.9950      545
  53.0100      512
  53.0250      532
  53.0400      536
  53.0550      514
  53.0700      530
  53.0850      551
  53.1000      528
  53.1150      513
  53.1300      541
  53.1450      551
  53.1600      570
  53.1750      499
  53.1900      519
  53.2050      527
  53.2200      511
  53.2350      515
  53.2500      521
  53.2650      508
  53.2800      486
  53.2950      492
  53.3100      541
  53.3250      537
  53.3400      517
  53.3550      527
  53.3700      505
  53.3850      495
  53.4000      512
  53.4150      508
  53.4300      524
  53.4450      535
  53.4600      514
  53.4750      540
  53.4900      541
  53.5050      505
  53.5200      499
  53.5350      504
  53.5500      514
  53.5650      515
  53.5800      574
  53.5950      578
  53.6100      497
  53.6250      553
  53.6400      580
  53.6550      569
  53.6700      531
  53.6850      538
  53.7000      526
  53.7150      548
  53.7300      556
  53.7450      527
  53.7600      560
  53.7750      550
  53.7900      568
  53.8050      558
  53.8200      581
  53.8350      566
  53.8500      551
  53.8650      578
  53.8800      566
  53.8950      594
  53.9100      598
  53.9250      582
  53.9400      588
  53.9550      609
  53.9700      584
  53.9850      578
  54.0000      545
  54.0150      562
  54.0300      569
  54.0450      601
  54.0600      552
  54.0750      606
  54.0900      602
  54.1050      558
  54.1200      515
  54.1350      547
  54.1500      552
  54.1650      545
  54.1800      509
  54.1950      516
  54.2100      507
  54.2250      502
  54.2400      519
  54.2550      548
  54.2700      521
  54.2850      527
  54.3000      509
  54.3150      504
  54.3300      464
  54.3450      479
  54.3600      463
  54.3750      484
  54.3900      487
  54.4050      471
  54.4200      506
  54.4350      501
  54.4500      506
  54.4650      519
  54.4800      524
  54.4950      467
  54.5100      492
  54.5250      502
  54.5400      519
  54.5550      493
  54.5700      482
  54.5850      505
  54.6000      505
  54.6150      537
  54.6300      477
  54.6450      489
  54.6600      502
  54.6750      513
  54.6900      511
  54.7050      509
  54.7200      490
  54.7350      492
  54.7500      504
  54.7650      493
  54.7800      515
  54.7950      507
  54.8100      533
  54.8250      497
  54.8400      508
  54.8550      484
  54.8700      494
  54.8850      471
  54.9000      480
  54.9150      493
  54.9300      480
  54.9450      509
  54.9600      452
  54.9750      469
  54.9900      484
  55.0050      528
  55.0200      520
  55.0350      474
  55.0500      428
  55.0650      447
  55.0800      501
  55.0950      500
  55.1100      453
  55.1250      479
  55.1400      500
  55.1550      476
  55.1700      454
  55.1850      464
  55.2000      496
  55.2150      450
  55.2300      506
  55.2450      510
  55.2600      510
  55.2750      499
  55.2900      497
  55.3050      479
  55.3200      463
  55.3350      469
  55.3500      494
  55.3650      516
  55.3800      481
  55.3950      470
  55.4100      471
  55.4250      489
  55.4400      470
  55.4550      504
  55.4700      491
  55.4850      478
  55.5000      486
  55.5150      454
  55.5300      445
  55.5450      453
  55.5600      475
  55.5750      463
  55.5900      479
  55.6050      488
  55.6200      454
  55.6350      477
  55.6500      504
  55.6650      499
  55.6800      509
  55.6950      525
  55.7100      491
  55.7250      524
  55.7400      501
  55.7550      482
  55.7700      514
  55.7850      546
  55.8000      533
  55.8150      523
  55.8300      554
  55.8450      549
  55.8600      535
  55.8750      555
  55.8900      521
  55.9050      533
  55.9200      555
  55.9350      557
  55.9500      546
  55.9650      547
  55.9800      551
  55.9950      602
  56.0100      575
  56.0250      568
  56.0400      544
  56.0550      512
  56.0700      526
  56.0850      531
  56.1000      518
  56.1150      496
  56.1300      480
  56.1450      497
  56.1600      514
  56.1750      540
  56.1900      491
  56.2050      470
  56.2200      491
  56.2350      485
  56.2500      463
  56.2650      499
  56.2800      489
  56.2950      486
  56.3100      509
  56.3250      475
  56.3400      482
  56.3550      488
  56.3700      499
  56.3850      510
  56.4000      488
  56.4150      499
  56.4300      496
  56.4450      487
  56.4600      479
  56.4750      501
  56.4900      481
  56.5050      486
  56.5200      486
  56.5350      472
  56.5500      504
  56.5650      507
  56.5800      515
  56.5950      503
  56.6100      535
  56.6250      511
  56.6400      508
  56.6550      467
  56.6700      485
  56.6850      511
  56.7000      511
  56.7150      475
  56.7300      501
  56.7450      500
  56.7600      519
  56.7750      519
  56.7900      508
  56.8050      494
  56.8200      516
  56.8350      502
  56.8500      497
  56.8650      529
  56.8800      529
  56.8950      497
  56.9100      503
  56.9250      530
  56.9400      497
  56.9550      500
  56.9700      499
  56.9850      492
  57.0000      503
  57.0150      495
  57.0300      486
  57.0450      514
  57.0600      506
  57.0750      505
  57.0900      520
  57.1050      476
  57.1200      497
  57.1350      523
  57.1500      510
  57.1650      571
  57.1800      559
  57.1950      525
  57.2100      511
  57.2250      506
  57.2400      503
  57.2550      531
  57.2700      528
  57.2850      475
  57.3000      498
  57.3150      526
  57.3300      518
  57.3450      518
  57.3600      528
  57.3750      551
  57.3900      506
  57.4050      515
  57.4200      525
  57.4350      514
  57.4500      539
  57.4650      524
  57.4800      533
  57.4950      533
  57.5100      534
  57.5250      537
  57.5400      530
  57.5550      492
  57.5700      564
  57.5850      504
  57.6000      489
  57.6150      484
  57.6300      498
  57.6450      500
  57.6600      477
  57.6750      474
  57.6900      464
  57.7050      525
  57.7200      489
  57.7350      498
  57.7500      487
  57.7650      527
  57.7800      462
  57.7950      483
  57.8100      484
  57.8250      474
  57.8400      453
  57.8550      461
  57.8700      443
  57.8850      426
  57.9000      433
  57.9150      443
  57.9300      465
  57.9450      474
  57.9600      481
  57.9750      482
  57.9900      467
  58.0050      446
  58.0200      485
  58.0350      474
  58.0500      451
  58.0650      449
  58.0800      487
  58.0950      455
  58.1100      485
  58.1250      470
  58.1400      468
  58.1550      481
  58.1700      470
  58.1850      451
  58.2000      468
  58.2150      461
  58.2300      476
  58.2450      456
  58.2600      457
  58.2750      469
  58.2900      470
  58.3050      485
  58.3200      486
  58.3350      461
  58.3500      482
  58.3650      505
  58.3800      480
  58.3950      484
  58.4100      506
  58.4250      491
  58.4400      492
  58.4550      484
  58.4700      458
  58.4850      495
  58.5000      472
  58.5150      448
  58.5300      466
  58.5450      480
  58.5600      469
  58.5750      470
  58.5900      437
  58.6050      452
  58.6200      449
  58.6350      442
  58.6500      461
  58.6650      429
  58.6800      439
  58.6950      466
  58.7100      425
  58.7250      435
  58.7400      437
  58.7550      451
  58.7700      450
  58.7850      433
  58.8000      467
  58.8150      442
  58.8300      435
  58.8450      454
  58.8600      441
  58.8750      445
  58.8900      463
  58.9050      459
  58.9200      480
  58.9350      478
  58.9500      471
  58.9650      455
  58.9800      464
  58.9950      481
  59.0100      464
  59.0250      457
  59.0400      444
  59.0550      441
  59.0700      462
  59.0850      472
  59.1000      465
  59.1150      458
  59.1300      464
  59.1450      470
  59.1600      474
  59.1750      466
  59.1900      461
  59.2050      484
  59.2200      485
  59.2350      465
  59.2500      486
  59.2650      473
  59.2800      512
  59.2950      455
  59.3100      473
  59.3250      487
  59.3400      481
  59.3550      501
  59.3700      517
  59.3850      531
  59.4000      560
  59.4150      488
  59.4300      501
  59.4450      482
  59.4600      471
  59.4750      512
  59.4900      516
  59.5050      502
  59.5200      486
  59.5350      529
  59.5500      460
  59.5650      477
  59.5800      480
  59.5950      466
  59.6100      457
  59.6250      452
  59.6400      461
  59.6550      452
  59.6700      463
  59.6850      443
  59.7000      456
  59.7150      434
  59.7300      443
  59.7450      449
  59.7600      446
  59.7750      433
  59.7900      435
  59.8050      428
  59.8200      407
  59.8350      407
  59.8500      439
  59.8650      445
  59.8800      444
  59.8950      446
  59.9100      440
  59.9250      429
  59.9400      434
  59.9550      425
  59.9700      408
  59.9850      431
  60.0000      384
  60.0150      408
  60.0300      431
  60.0450      402
  60.0600      417
  60.0750      428
  60.0900      446
  60.1050      405
  60.1200      399
  60.1350      421
  60.1500      417
  60.1650      433
  60.1800      440
  60.1950      437
  60.2100      451
  60.2250      454
  60.2400      437
  60.2550      455
  60.2700      463
  60.2850      443
  60.3000      421
  60.3150      460
  60.3300      434
  60.3450      432
  60.3600      456
  60.3750      453
  60.3900      444
  60.4050      456
  60.4200      444
  60.4350      425
  60.4500      418
  60.4650      435
  60.4800      445
  60.4950      442
  60.5100      448
  60.5250      416
  60.5400      415
  60.5550      446
  60.5700      479
  60.5850      484
  60.6000      490
  60.6150      448
  60.6300      435
  60.6450      470
  60.6600      423
  60.6750      427
  60.6900      421
  60.7050      424
  60.7200      435
  60.7350      462
  60.7500      439
  60.7650      442
  60.7800      436
  60.7950      460
  60.8100      452
  60.8250      425
  60.8400      444
  60.8550      436
  60.8700      425
  60.8850      427
  60.9000      434
  60.9150      432
  60.9300      433
  60.9450      435
  60.9600      439
  60.9750      428
  60.9900      413
  61.0050      408
  61.0200      416
  61.0350      439
  61.0500      406
  61.0650      413
  61.0800      419
  61.0950      390
  61.1100      392
  61.1250      435
  61.1400      409
  61.1550      379
  61.1700      421
  61.1850      419
  61.2000      388
  61.2150      381
  61.2300      393
  61.2450      400
  61.2600      395
  61.2750      392
  61.2900      386
  61.3050      410
  61.3200      398
  61.3350      376
  61.3500      407
  61.3650      397
  61.3800      433
  61.3950      423
  61.4100      415
  61.4250      404
  61.4400      388
  61.4550      395
  61.4700      378
  61.4850      398
  61.5000      432
  61.5150      412
  61.5300      415
  61.5450      399
  61.5600      406
  61.5750      403
  61.5900      439
  61.6050      397
  61.6200      365
  61.6350      372
  61.6500      366
  61.6650      385
  61.6800      446
  61.6950      418
  61.7100      435
  61.7250      409
  61.7400      414
  61.7550      388
  61.7700      408
